# x = Time (fs); y = Power (W)
-1.151999994796352311e+01 1.956795136000000000e+09
-1.147999994814420432e+01 2.387603200000000000e+09
-1.143999994832488731e+01 2.877615360000000000e+09
-1.139999994850557030e+01 3.424744960000000000e+09
-1.135999994868625151e+01 3.890409984000000000e+09
-1.131999994886693450e+01 4.206415104000000000e+09
-1.127999994904761571e+01 4.364959232000000000e+09
-1.123999994922829870e+01 4.336605184000000000e+09
-1.119999994940898169e+01 4.206272000000000000e+09
-1.115999994958966290e+01 4.114701056000000000e+09
-1.111999994977034589e+01 4.092604160000000000e+09
-1.107999994995102711e+01 4.163459840000000000e+09
-1.103999995013171009e+01 4.371756032000000000e+09
-1.099999995031239131e+01 4.585271296000000000e+09
-1.095999995049307429e+01 4.529124864000000000e+09
-1.091999995067375551e+01 4.005456384000000000e+09
-1.087999995085443850e+01 3.165642496000000000e+09
-1.083999995103512148e+01 2.296878080000000000e+09
-1.079999995121580270e+01 1.592363648000000000e+09
-1.075999995139648568e+01 1.067740224000000000e+09
-1.071999995157716690e+01 6.992184320000000000e+08
-1.067999995175784989e+01 4.580516160000000000e+08
-1.063999995193853110e+01 2.938303680000000000e+08
-1.059999995211921409e+01 1.901279040000000000e+08
-1.055999995229989707e+01 1.266356720000000000e+08
-1.051999995248057829e+01 8.366888800000000000e+07
-1.047999995266126128e+01 5.342482400000000000e+07
-1.043999995284194249e+01 3.077209200000000000e+07
-1.039999995302262548e+01 2.155761000000000000e+07
-1.035999995320330669e+01 3.598206800000000000e+07
-1.031999995338398968e+01 8.957958400000000000e+07
-1.027999995356467089e+01 1.972510560000000000e+08
-1.023999995374535388e+01 3.915593600000000000e+08
-1.019999995392603687e+01 7.195073280000000000e+08
-1.015999995410671808e+01 1.259739520000000000e+09
-1.011999995428740107e+01 2.090958336000000000e+09
-1.007999995446808228e+01 3.178489088000000000e+09
-1.003999995464876527e+01 4.370095616000000000e+09
-9.999999954829448257e+00 5.383456768000000000e+09
-9.959999955010129469e+00 5.997609984000000000e+09
-9.919999955190810681e+00 6.157008896000000000e+09
-9.879999955371493670e+00 5.950517760000000000e+09
-9.839999955552174882e+00 5.548972032000000000e+09
-9.799999955732859647e+00 4.976688128000000000e+09
-9.759999955913540859e+00 4.450141696000000000e+09
-9.719999956094222071e+00 3.921336320000000000e+09
-9.679999956274905060e+00 3.398727424000000000e+09
-9.639999956455586272e+00 2.923010048000000000e+09
-9.599999956636269260e+00 2.411283968000000000e+09
-9.559999956816952249e+00 1.868907648000000000e+09
-9.519999956997633461e+00 1.331491200000000000e+09
-9.479999957178316450e+00 8.024762880000000000e+08
-9.439999957358997662e+00 3.895061120000000000e+08
-9.399999957539680651e+00 1.374539520000000000e+08
-9.359999957720363639e+00 4.052360800000000000e+07
-9.319999957901044851e+00 3.932873600000000000e+07
-9.279999958081726064e+00 1.009516560000000000e+08
-9.239999958262409052e+00 5.354373440000000000e+08
-9.199999958443092041e+00 1.846218496000000000e+09
-9.159999958623775029e+00 4.067956224000000000e+09
-9.119999958804456242e+00 6.923412480000000000e+09
-9.079999958985137454e+00 9.821913088000000000e+09
-9.039999959165818666e+00 1.248726118400000000e+10
-8.999999959346501655e+00 1.513957888000000000e+10
-8.959999959527186419e+00 1.620838297600000000e+10
-8.919999959707867632e+00 1.518418022400000000e+10
-8.879999959888548844e+00 1.290067148800000000e+10
-8.839999960069230056e+00 9.857713152000000000e+09
-8.799999960249913045e+00 7.230158848000000000e+09
-8.759999960430597810e+00 5.359930368000000000e+09
-8.719999960611279022e+00 4.018253312000000000e+09
-8.679999960791960234e+00 3.191388928000000000e+09
-8.639999960972641446e+00 2.817236224000000000e+09
-8.599999961153324435e+00 2.700755968000000000e+09
-8.559999961334007423e+00 2.869597952000000000e+09
-8.519999961514690412e+00 3.199474688000000000e+09
-8.479999961695371624e+00 3.696157696000000000e+09
-8.439999961876052836e+00 4.455549952000000000e+09
-8.399999962056734049e+00 5.513493504000000000e+09
-8.359999962237418814e+00 6.885899264000000000e+09
-8.319999962418101802e+00 8.402144256000000000e+09
-8.279999962598783014e+00 9.553400832000000000e+09
-8.239999962779464227e+00 9.984563200000000000e+09
-8.199999962960145439e+00 9.316253696000000000e+09
-8.159999963140828427e+00 7.682485760000000000e+09
-8.119999963321513192e+00 5.851027456000000000e+09
-8.079999963502194404e+00 4.161108224000000000e+09
-8.039999963682875617e+00 2.946852352000000000e+09
-7.999999963863557717e+00 2.109195008000000000e+09
-7.959999964044240706e+00 1.455932032000000000e+09
-7.919999964224921918e+00 1.075024000000000000e+09
-7.879999964405605795e+00 1.133821056000000000e+09
-7.839999964586287007e+00 1.382778880000000000e+09
-7.799999964766968219e+00 1.857388160000000000e+09
-7.759999964947650319e+00 3.208441856000000000e+09
-7.719999965128333308e+00 4.820384768000000000e+09
-7.679999965309016297e+00 3.911625472000000000e+09
-7.639999965489698397e+00 1.425235200000000000e+09
-7.599999965670379609e+00 2.084890112000000000e+09
-7.559999965851061710e+00 8.354114048000000000e+09
-7.519999966031744698e+00 2.140554854400000000e+10
-7.479999966212426799e+00 3.978254336000000000e+10
-7.439999966393109787e+00 5.041530880000000000e+10
-7.399999966573790999e+00 4.425405235200000000e+10
-7.359999966754473100e+00 2.744448614400000000e+10
-7.319999966935154312e+00 1.435090227200000000e+10
-7.279999967115837300e+00 6.832439808000000000e+09
-7.239999967296521177e+00 3.431201536000000000e+09
-7.199999967477202389e+00 2.109715584000000000e+09
-7.159999967657884490e+00 1.715929728000000000e+09
-7.119999967838565702e+00 1.500060288000000000e+09
-7.079999968019248691e+00 1.258437760000000000e+09
-7.039999968199931679e+00 1.125897984000000000e+09
-6.999999968380612891e+00 1.185592448000000000e+09
-6.959999968561295880e+00 1.174231552000000000e+09
-6.919999968741977980e+00 1.424717440000000000e+09
-6.879999968922660081e+00 1.915416704000000000e+09
-6.839999969103342181e+00 2.505679616000000000e+09
-6.799999969284024282e+00 3.899506176000000000e+09
-6.759999969464706382e+00 5.104363520000000000e+09
-6.719999969645389370e+00 7.943930368000000000e+09
-6.679999969826070583e+00 1.119253606400000000e+10
-6.639999970006753571e+00 1.141064806400000000e+10
-6.599999970187435672e+00 7.270823424000000000e+09
-6.559999970368116884e+00 2.789466112000000000e+09
-6.519999970548799872e+00 1.929096960000000000e+09
-6.479999970729481973e+00 2.635655424000000000e+09
-6.439999970910164961e+00 5.517838336000000000e+09
-6.399999971090846174e+00 1.023933542400000000e+10
-6.359999971271528274e+00 1.432281702400000000e+10
-6.319999971452211263e+00 1.956092723200000000e+10
-6.279999971632893363e+00 2.804555366400000000e+10
-6.239999971813575463e+00 3.526279168000000000e+10
-6.199999971994257564e+00 3.667377356800000000e+10
-6.159999972174939664e+00 3.281299456000000000e+10
-6.119999972355622653e+00 2.445394534400000000e+10
-6.079999972536303865e+00 1.514417868800000000e+10
-6.039999972716985965e+00 8.246915584000000000e+09
-5.999999972897668954e+00 4.625910784000000000e+09
-5.959999973078351054e+00 3.521768448000000000e+09
-5.919999973259033155e+00 4.491832832000000000e+09
-5.879999973439715255e+00 8.092659712000000000e+09
-5.839999973620396467e+00 1.368856268800000000e+10
-5.799999973801080344e+00 2.313872588800000000e+10
-5.759999973981761556e+00 3.656095744000000000e+10
-5.719999974162444545e+00 4.849720524800000000e+10
-5.679999974343126645e+00 5.395647283200000000e+10
-5.639999974523807857e+00 5.110202777600000000e+10
-5.599999974704491734e+00 4.195049881600000000e+10
-5.559999974885172946e+00 3.025172684800000000e+10
-5.519999975065855047e+00 1.863036313600000000e+10
-5.479999975246538035e+00 1.054582886400000000e+10
-5.439999975427219248e+00 5.148780032000000000e+09
-5.399999975607903124e+00 3.717410560000000000e+09
-5.359999975788584337e+00 4.053064192000000000e+09
-5.319999975969265549e+00 4.670009344000000000e+09
-5.279999976149949426e+00 5.186569216000000000e+09
-5.239999976330630638e+00 4.409580032000000000e+09
-5.199999976511312738e+00 2.367814912000000000e+09
-5.159999976691995727e+00 8.438693120000000000e+08
-5.119999976872676939e+00 1.521155040000000000e+08
-5.079999977053359039e+00 5.498705280000000000e+08
-5.039999977234042028e+00 1.343678976000000000e+09
-4.999999977414724128e+00 1.711613696000000000e+09
-4.959999977595407117e+00 1.395926272000000000e+09
-4.919999977776088329e+00 3.716393280000000000e+08
-4.879999977956770429e+00 2.023252000000000000e+08
-4.839999978137453418e+00 2.363894016000000000e+09
-4.799999978318134630e+00 6.657536000000000000e+09
-4.759999978498816731e+00 1.042414694400000000e+10
-4.719999978679499719e+00 1.057475788800000000e+10
-4.679999978860181820e+00 1.636008857600000000e+10
-4.639999979040864808e+00 2.882259353600000000e+10
-4.599999979221546020e+00 3.325301760000000000e+10
-4.559999979402228121e+00 2.617920512000000000e+10
-4.519999979582911109e+00 3.154554470400000000e+10
-4.479999979763593210e+00 5.526931046400000000e+10
-4.439999979944274422e+00 7.786799923200000000e+10
-4.399999980124957411e+00 7.518101504000000000e+10
-4.359999980305639511e+00 4.911898214400000000e+10
-4.319999980486322499e+00 2.826739507200000000e+10
-4.279999980667003712e+00 1.424658534400000000e+10
-4.239999980847685812e+00 5.082988032000000000e+09
-4.199999981028368801e+00 8.936218240000000000e+08
-4.159999981209050901e+00 7.386264000000000000e+07
-4.119999981389732113e+00 1.005267584000000000e+09
-4.079999981570415102e+00 2.714480384000000000e+09
-4.039999981751097202e+00 5.172354560000000000e+09
-3.999999981931778859e+00 1.004508876800000000e+10
-3.959999982112461847e+00 1.873692262400000000e+10
-3.919999982293143503e+00 2.610261606400000000e+10
-3.879999982473826936e+00 4.587814502400000000e+10
-3.839999982654508148e+00 7.519583436800000000e+10
-3.799999982835189805e+00 9.237259059200000000e+10
-3.759999983015873237e+00 8.597948006400000000e+10
-3.719999983196554894e+00 5.908503756800000000e+10
-3.679999983377236550e+00 2.666087833600000000e+10
-3.639999983557919538e+00 6.593894400000000000e+09
-3.599999983738601195e+00 1.332198528000000000e+09
-3.559999983919284627e+00 2.074477312000000000e+09
-3.519999984099966284e+00 1.329407872000000000e+09
-3.479999984280647940e+00 7.299850752000000000e+09
-3.439999984461330929e+00 2.872383692800000000e+10
-3.399999984642012585e+00 5.140792524800000000e+10
-3.359999984822694241e+00 5.822417305600000000e+10
-3.319999985003377230e+00 4.565097267200000000e+10
-3.279999985184058886e+00 3.186583961600000000e+10
-3.239999985364742319e+00 1.540670464000000000e+10
-3.199999985545423975e+00 3.062758912000000000e+09
-3.159999985726105631e+00 4.421672960000000000e+08
-3.119999985906788620e+00 5.183700992000000000e+09
-3.079999986087470276e+00 1.091472486400000000e+10
-3.039999986268151932e+00 2.293054259200000000e+10
-2.999999986448835365e+00 5.531340390400000000e+10
-2.959999986629517021e+00 1.034316349440000000e+11
-2.919999986810200010e+00 1.242332938240000000e+11
-2.879999986990881666e+00 1.002699571200000000e+11
-2.839999987171563323e+00 6.411799756800000000e+10
-2.799999987352246311e+00 3.606498918400000000e+10
-2.759999987532927967e+00 1.758122598400000000e+10
-2.719999987713609624e+00 7.139640832000000000e+09
-2.679999987894293056e+00 3.721356800000000000e+09
-2.639999988074974713e+00 3.050101760000000000e+09
-2.599999988255656369e+00 2.544121600000000000e+09
-2.559999988436339358e+00 1.577888768000000000e+09
-2.519999988617021014e+00 3.296044800000000000e+08
-2.479999988797704447e+00 2.725669120000000000e+08
-2.439999988978386103e+00 4.987763520000000000e+08
-2.399999989159067315e+00 1.036885120000000000e+09
-2.359999989339750748e+00 3.566821440000000000e+08
-2.319999989520432404e+00 1.259217152000000000e+09
-2.279999989701114060e+00 5.287692288000000000e+09
-2.239999989881797049e+00 9.187976192000000000e+09
-2.199999990062478705e+00 1.396939059200000000e+10
-2.159999990243162138e+00 1.339990016000000000e+10
-2.119999990423843794e+00 1.004874956800000000e+10
-2.079999990604525451e+00 5.015690240000000000e+09
-2.039999990785208439e+00 2.024163584000000000e+09
-1.999999990965890095e+00 6.536458240000000000e+09
-1.959999991146571752e+00 1.538079232000000000e+10
-1.919999991327254962e+00 1.632450048000000000e+10
-1.879999991507936619e+00 1.239991808000000000e+10
-1.839999991688619829e+00 1.557192396800000000e+10
-1.799999991869301486e+00 4.212982988800000000e+10
-1.759999992049983142e+00 7.713188249600000000e+10
-1.719999992230666352e+00 9.813142732800000000e+10
-1.679999992411347787e+00 9.244879257600000000e+10
-1.639999992592029443e+00 6.205944217600000000e+10
-1.599999992772712654e+00 3.271849574400000000e+10
-1.559999992953394310e+00 3.137385881600000000e+10
-1.519999993134077521e+00 3.860466073600000000e+10
-1.479999993314759177e+00 2.568891596800000000e+10
-1.439999993495440833e+00 7.642343424000000000e+09
-1.399999993676124044e+00 1.610846400000000000e+08
-1.359999993856805700e+00 2.815305984000000000e+09
-1.319999994037487356e+00 9.251385344000000000e+09
-1.279999994218170567e+00 1.799501004800000000e+10
-1.239999994398852223e+00 3.919018393600000000e+10
-1.199999994579533658e+00 6.809095372800000000e+10
-1.159999994760216868e+00 7.521005568000000000e+10
-1.119999994940898524e+00 4.975111372800000000e+10
-1.079999995121581735e+00 1.458680422400000000e+10
-1.039999995302263391e+00 6.351635456000000000e+09
-9.999999954829450477e-01 2.728935014400000000e+10
-9.599999956636282583e-01 5.793959116800000000e+10
-9.199999958443099146e-01 6.592855654400000000e+10
-8.799999960249915709e-01 4.731815936000000000e+10
-8.399999962056747815e-01 2.734775910400000000e+10
-7.999999963863563268e-01 2.293553766400000000e+10
-7.599999965670395374e-01 2.277106278400000000e+10
-7.199999967477211937e-01 2.500129177600000000e+10
-6.799999969284028500e-01 3.440066150400000000e+10
-6.399999971090860607e-01 4.165987942400000000e+10
-5.999999972897677170e-01 4.622938521600000000e+10
-5.599999974704492622e-01 5.300457472000000000e+10
-5.199999976511324729e-01 4.638638080000000000e+10
-4.799999978318141292e-01 3.410953011200000000e+10
-4.399999980124973398e-01 3.137441792000000000e+10
-3.999999981931789961e-01 4.292598988800000000e+10
-3.599999983738605969e-01 5.598340300800000000e+10
-3.199999985545438075e-01 5.648024371200000000e+10
-2.799999987352254638e-01 4.611903488000000000e+10
-2.399999989159070646e-01 3.577913753600000000e+10
-1.999999990965902752e-01 3.069343948800000000e+10
-1.599999992772719037e-01 3.153560985600000000e+10
-1.199999994579535323e-01 2.513585356800000000e+10
-7.999999963863674290e-02 1.577142067200000000e+10
-3.999999981931837145e-02 9.769358336000000000e+09
-1.577721810442023611e-15 4.407181312000000000e+09
3.999999981931678938e-02 5.296773440000000000e+08
7.999999963863516084e-02 1.354830720000000000e+09
1.199999994579519502e-01 3.286432512000000000e+09
1.599999992772703217e-01 6.505213440000000000e+09
1.999999990965886931e-01 1.345110732800000000e+10
2.399999989159054825e-01 2.560346316800000000e+10
2.799999987352238540e-01 6.985582182400000000e+10
3.199999985545406433e-01 1.240490885120000000e+11
3.599999983738590426e-01 1.291104501760000000e+11
3.999999981931773863e-01 8.793831014400000000e+10
4.399999980124941756e-01 4.568856166400000000e+10
4.799999978318125748e-01 3.057915494400000000e+10
5.199999976511309185e-01 2.642464972800000000e+10
5.599999974704477079e-01 1.741194649600000000e+10
5.999999972897660516e-01 6.520307200000000000e+09
6.399999971090828410e-01 2.460281760000000000e+08
6.799999969284012957e-01 3.964855296000000000e+09
7.199999967477196394e-01 1.175244492800000000e+10
7.599999965670364288e-01 1.550642892800000000e+10
7.999999963863547725e-01 1.760576307200000000e+10
8.399999962056731162e-01 1.697184665600000000e+10
8.799999960249899056e-01 1.564292096000000000e+10
9.199999958443083603e-01 1.666122752000000000e+10
9.599999956636251497e-01 2.260359987200000000e+10
9.999999954829434934e-01 3.098255564800000000e+10
1.039999995302261837e+00 3.444706508800000000e+10
1.079999995121578626e+00 2.114283315200000000e+10
1.119999994940896970e+00 6.769519616000000000e+09
1.159999994760215314e+00 1.069317632000000000e+10
1.199999994579532103e+00 2.219312742400000000e+10
1.239999994398850447e+00 2.849911398400000000e+10
1.279999994218169013e+00 2.224722944000000000e+10
1.319999994037487356e+00 9.362449408000000000e+09
1.359999993856802591e+00 1.063975936000000000e+09
1.399999993676120935e+00 2.738234560000000000e+08
1.439999993495439279e+00 2.081425024000000000e+09
1.479999993314757623e+00 4.068004864000000000e+09
1.519999993134075966e+00 1.081543680000000000e+10
1.559999992953391201e+00 6.429325312000000000e+10
1.599999992772709545e+00 1.446241239040000000e+11
1.639999992592027889e+00 1.923619880960000000e+11
1.679999992411346232e+00 1.530818396160000000e+11
1.719999992230664798e+00 8.561912217600000000e+10
1.759999992049983142e+00 3.261657907200000000e+10
1.799999991869298377e+00 1.120754892800000000e+10
1.839999991688616721e+00 3.293838592000000000e+09
1.879999991507935064e+00 2.198061760000000000e+08
1.919999991327253408e+00 1.532003712000000000e+09
1.959999991146571752e+00 6.445020160000000000e+09
1.999999990965886987e+00 1.102121779200000000e+10
2.039999990785205330e+00 2.918937804800000000e+10
2.079999990604523674e+00 4.761234636800000000e+10
2.119999990423842018e+00 4.776406220800000000e+10
2.159999990243160362e+00 2.202375577600000000e+10
2.199999990062475597e+00 7.160404992000000000e+09
2.239999989881793940e+00 7.658706560000000000e+08
2.279999989701112284e+00 1.546985267200000000e+10
2.319999989520430628e+00 6.086167347200000000e+10
2.359999989339748971e+00 9.533893017600000000e+10
2.399999989159067315e+00 8.157693542400000000e+10
2.439999988978382550e+00 4.364032000000000000e+10
2.479999988797700894e+00 2.214277939200000000e+10
2.519999988617019682e+00 1.872941465600000000e+10
2.559999988436338025e+00 1.666418073600000000e+10
2.599999988255656369e+00 6.513980416000000000e+09
2.639999988074971604e+00 4.394256960000000000e+08
2.679999987894289948e+00 9.211461632000000000e+09
2.719999987713608292e+00 2.882025472000000000e+10
2.759999987532926635e+00 3.515869593600000000e+10
2.799999987352244979e+00 3.488254771200000000e+10
2.839999987171563323e+00 4.121716326400000000e+10
2.879999986990878558e+00 5.955768320000000000e+10
2.919999986810196901e+00 7.404298240000000000e+10
2.959999986629515245e+00 8.605630464000000000e+10
2.999999986448833589e+00 7.720511078400000000e+10
3.039999986268151932e+00 3.909016371200000000e+10
3.079999986087467168e+00 1.244110643200000000e+10
3.119999985906785511e+00 1.934336640000000000e+09
3.159999985726103855e+00 1.435088320000000000e+08
3.199999985545422199e+00 3.536516864000000000e+09
3.239999985364740542e+00 1.287537254400000000e+10
3.279999985184055777e+00 1.372019609600000000e+10
3.319999985003374121e+00 2.344330496000000000e+09
3.359999984822692465e+00 5.802575872000000000e+09
3.399999984642010808e+00 1.838002995200000000e+10
3.439999984461329596e+00 8.511083520000000000e+09
3.479999984280647940e+00 2.283842560000000000e+10
3.519999984099963175e+00 7.310819328000000000e+10
3.559999983919281519e+00 9.819853619200000000e+10
3.599999983738599862e+00 8.504408473600000000e+10
3.639999983557918206e+00 6.582268723200000000e+10
3.679999983377236550e+00 4.542373478400000000e+10
3.719999983196551785e+00 2.669064192000000000e+10
3.759999983015870129e+00 1.591182848000000000e+10
3.799999982835188472e+00 2.667416166400000000e+10
3.839999982654506816e+00 4.179295436800000000e+10
3.879999982473825160e+00 3.982403584000000000e+10
3.919999982293143503e+00 1.594229248000000000e+10
3.959999982112458738e+00 6.524007424000000000e+09
3.999999981931777082e+00 6.915648000000000000e+09
4.039999981751095426e+00 3.569119744000000000e+09
4.079999981570414214e+00 7.607460864000000000e+09
4.119999981389732113e+00 4.398504755200000000e+10
4.159999981209047348e+00 9.336301977600000000e+10
