# x = Time (fs); y = Power (W)
-1.163999994742147770e+01 2.230965760000000000e+09
-1.159999994760215891e+01 2.541896704000000000e+09
-1.155999994778284012e+01 2.883336448000000000e+09
-1.151999994796352311e+01 3.155253504000000000e+09
-1.147999994814420432e+01 3.323328000000000000e+09
-1.143999994832488731e+01 3.281565440000000000e+09
-1.139999994850557030e+01 2.922011904000000000e+09
-1.135999994868625151e+01 2.322405632000000000e+09
-1.131999994886693450e+01 1.678419840000000000e+09
-1.127999994904761571e+01 1.086816256000000000e+09
-1.123999994922829870e+01 6.704460160000000000e+08
-1.119999994940898169e+01 4.517060480000000000e+08
-1.115999994958966290e+01 4.167835200000000000e+08
-1.111999994977034589e+01 5.669865600000000000e+08
-1.107999994995102711e+01 9.001072640000000000e+08
-1.103999995013171009e+01 1.431394304000000000e+09
-1.099999995031239131e+01 2.136675968000000000e+09
-1.095999995049307429e+01 2.919419648000000000e+09
-1.091999995067375551e+01 3.617665536000000000e+09
-1.087999995085443850e+01 3.988236288000000000e+09
-1.083999995103512148e+01 4.009118720000000000e+09
-1.079999995121580270e+01 3.767630080000000000e+09
-1.075999995139648568e+01 3.378712576000000000e+09
-1.071999995157716690e+01 3.012226304000000000e+09
-1.067999995175784989e+01 2.709185536000000000e+09
-1.063999995193853110e+01 2.454349312000000000e+09
-1.059999995211921409e+01 2.326605824000000000e+09
-1.055999995229989707e+01 2.280409344000000000e+09
-1.051999995248057829e+01 2.349774592000000000e+09
-1.047999995266126128e+01 2.551731712000000000e+09
-1.043999995284194249e+01 2.904976128000000000e+09
-1.039999995302262548e+01 3.449968640000000000e+09
-1.035999995320330669e+01 4.167981056000000000e+09
-1.031999995338398968e+01 4.822706688000000000e+09
-1.027999995356467089e+01 5.084281856000000000e+09
-1.023999995374535388e+01 4.641982976000000000e+09
-1.019999995392603687e+01 3.772761600000000000e+09
-1.015999995410671808e+01 2.883195392000000000e+09
-1.011999995428740107e+01 2.112138752000000000e+09
-1.007999995446808228e+01 1.442664448000000000e+09
-1.003999995464876527e+01 9.216903040000000000e+08
-9.999999954829448257e+00 5.440579200000000000e+08
-9.959999955010129469e+00 2.885759040000000000e+08
-9.919999955190810681e+00 1.534772960000000000e+08
-9.879999955371493670e+00 8.887731200000000000e+07
-9.839999955552174882e+00 6.069880000000000000e+07
-9.799999955732859647e+00 5.104717200000000000e+07
-9.759999955913540859e+00 4.748760000000000000e+07
-9.719999956094222071e+00 4.274054000000000000e+07
-9.679999956274905060e+00 3.720643600000000000e+07
-9.639999956455586272e+00 4.533361600000000000e+07
-9.599999956636269260e+00 7.831516000000000000e+07
-9.559999956816952249e+00 1.683509920000000000e+08
-9.519999956997633461e+00 3.687008640000000000e+08
-9.479999957178316450e+00 5.873692160000000000e+08
-9.439999957358997662e+00 6.482613120000000000e+08
-9.399999957539680651e+00 7.536483200000000000e+08
-9.359999957720363639e+00 1.393963392000000000e+09
-9.319999957901044851e+00 2.744816384000000000e+09
-9.279999958081726064e+00 4.452896768000000000e+09
-9.239999958262409052e+00 6.029764608000000000e+09
-9.199999958443092041e+00 7.316338688000000000e+09
-9.159999958623775029e+00 8.432901632000000000e+09
-9.119999958804456242e+00 8.671547392000000000e+09
-9.079999958985137454e+00 8.208346112000000000e+09
-9.039999959165818666e+00 7.118336512000000000e+09
-8.999999959346501655e+00 5.716325376000000000e+09
-8.959999959527186419e+00 4.758476288000000000e+09
-8.919999959707867632e+00 4.191455744000000000e+09
-8.879999959888548844e+00 4.016348928000000000e+09
-8.839999960069230056e+00 4.180071936000000000e+09
-8.799999960249913045e+00 4.591602688000000000e+09
-8.759999960430597810e+00 5.226945536000000000e+09
-8.719999960611279022e+00 6.288998400000000000e+09
-8.679999960791960234e+00 8.523541504000000000e+09
-8.639999960972641446e+00 1.258042368000000000e+10
-8.599999961153324435e+00 1.729164902400000000e+10
-8.559999961334007423e+00 2.008958156800000000e+10
-8.519999961514690412e+00 1.890440806400000000e+10
-8.479999961695371624e+00 1.534407475200000000e+10
-8.439999961876052836e+00 1.123926630400000000e+10
-8.399999962056734049e+00 7.875777024000000000e+09
-8.359999962237418814e+00 5.513009664000000000e+09
-8.319999962418101802e+00 4.120454400000000000e+09
-8.279999962598783014e+00 3.277148672000000000e+09
-8.239999962779464227e+00 2.549801984000000000e+09
-8.199999962960145439e+00 1.433839232000000000e+09
-8.159999963140828427e+00 5.523374720000000000e+08
-8.119999963321513192e+00 4.825614720000000000e+08
-8.079999963502194404e+00 1.581953280000000000e+09
-8.039999963682875617e+00 4.208623616000000000e+09
-7.999999963863557717e+00 9.140710400000000000e+09
-7.959999964044240706e+00 1.649747968000000000e+10
-7.919999964224921918e+00 2.382256742400000000e+10
-7.879999964405605795e+00 2.633267200000000000e+10
-7.839999964586287007e+00 2.189192601600000000e+10
-7.799999964766968219e+00 1.455230054400000000e+10
-7.759999964947650319e+00 8.434628608000000000e+09
-7.719999965128333308e+00 4.530191360000000000e+09
-7.679999965309016297e+00 2.556161792000000000e+09
-7.639999965489698397e+00 1.588329600000000000e+09
-7.599999965670379609e+00 1.096785664000000000e+09
-7.559999965851061710e+00 8.941157120000000000e+08
-7.519999966031744698e+00 8.477514240000000000e+08
-7.479999966212426799e+00 1.025807552000000000e+09
-7.439999966393109787e+00 1.350451328000000000e+09
-7.399999966573790999e+00 2.474184960000000000e+09
-7.359999966754473100e+00 5.905478656000000000e+09
-7.319999966935154312e+00 1.142233395200000000e+10
-7.279999967115837300e+00 1.596653772800000000e+10
-7.239999967296521177e+00 1.647474176000000000e+10
-7.199999967477202389e+00 1.559077785600000000e+10
-7.159999967657884490e+00 1.416463462400000000e+10
-7.119999967838565702e+00 1.281436160000000000e+10
-7.079999968019248691e+00 1.080951808000000000e+10
-7.039999968199931679e+00 9.162852352000000000e+09
-6.999999968380612891e+00 7.333103616000000000e+09
-6.959999968561295880e+00 6.122375680000000000e+09
-6.919999968741977980e+00 5.230484992000000000e+09
-6.879999968922660081e+00 4.366531072000000000e+09
-6.839999969103342181e+00 3.915462656000000000e+09
-6.799999969284024282e+00 4.339126784000000000e+09
-6.759999969464706382e+00 6.772276736000000000e+09
-6.719999969645389370e+00 1.068511334400000000e+10
-6.679999969826070583e+00 1.373130649600000000e+10
-6.639999970006753571e+00 1.324305408000000000e+10
-6.599999970187435672e+00 1.025593548800000000e+10
-6.559999970368116884e+00 5.173130240000000000e+09
-6.519999970548799872e+00 9.980062720000000000e+08
-6.479999970729481973e+00 3.589704000000000000e+08
-6.439999970910164961e+00 3.981123328000000000e+09
-6.399999971090846174e+00 9.613926400000000000e+09
-6.359999971271528274e+00 1.300117708800000000e+10
-6.319999971452211263e+00 1.236003225600000000e+10
-6.279999971632893363e+00 9.956531200000000000e+09
-6.239999971813575463e+00 7.385329152000000000e+09
-6.199999971994257564e+00 5.957133824000000000e+09
-6.159999972174939664e+00 5.169766912000000000e+09
-6.119999972355622653e+00 4.069082368000000000e+09
-6.079999972536303865e+00 3.005204224000000000e+09
-6.039999972716985965e+00 2.010411136000000000e+09
-5.999999972897668954e+00 1.745447296000000000e+09
-5.959999973078351054e+00 2.538803200000000000e+09
-5.919999973259033155e+00 3.353332480000000000e+09
-5.879999973439715255e+00 4.096214272000000000e+09
-5.839999973620396467e+00 4.377511936000000000e+09
-5.799999973801080344e+00 4.195453440000000000e+09
-5.759999973981761556e+00 3.880817152000000000e+09
-5.719999974162444545e+00 3.708586752000000000e+09
-5.679999974343126645e+00 3.995639296000000000e+09
-5.639999974523807857e+00 4.256565248000000000e+09
-5.599999974704491734e+00 4.081818624000000000e+09
-5.559999974885172946e+00 4.061967360000000000e+09
-5.519999975065855047e+00 4.981777920000000000e+09
-5.479999975246538035e+00 5.553457664000000000e+09
-5.439999975427219248e+00 6.111667200000000000e+09
-5.399999975607903124e+00 1.633003315200000000e+10
-5.359999975788584337e+00 3.499216076800000000e+10
-5.319999975969265549e+00 5.002799923200000000e+10
-5.279999976149949426e+00 5.486036172800000000e+10
-5.239999976330630638e+00 5.338590412800000000e+10
-5.199999976511312738e+00 4.830062592000000000e+10
-5.159999976691995727e+00 4.087571660800000000e+10
-5.119999976872676939e+00 2.163661619200000000e+10
-5.079999977053359039e+00 5.675542528000000000e+09
-5.039999977234042028e+00 3.169996544000000000e+09
-4.999999977414724128e+00 1.095275520000000000e+10
-4.959999977595407117e+00 1.766847078400000000e+10
-4.919999977776088329e+00 2.095864422400000000e+10
-4.879999977956770429e+00 3.350122700800000000e+10
-4.839999978137453418e+00 4.756878540800000000e+10
-4.799999978318134630e+00 4.245200896000000000e+10
-4.759999978498816731e+00 2.633640960000000000e+10
-4.719999978679499719e+00 2.042803200000000000e+10
-4.679999978860181820e+00 2.132491264000000000e+10
-4.639999979040864808e+00 1.979110809600000000e+10
-4.599999979221546020e+00 1.747535052800000000e+10
-4.559999979402228121e+00 1.628488499200000000e+10
-4.519999979582911109e+00 1.611668172800000000e+10
-4.479999979763593210e+00 1.408498585600000000e+10
-4.439999979944274422e+00 8.792795136000000000e+09
-4.399999980124957411e+00 7.463798784000000000e+09
-4.359999980305639511e+00 1.443377561600000000e+10
-4.319999980486322499e+00 2.606575820800000000e+10
-4.279999980667003712e+00 3.219843276800000000e+10
-4.239999980847685812e+00 2.547853721600000000e+10
-4.199999981028368801e+00 1.274302259200000000e+10
-4.159999981209050901e+00 5.693944320000000000e+09
-4.119999981389732113e+00 3.707754240000000000e+09
-4.079999981570415102e+00 3.633014272000000000e+09
-4.039999981751097202e+00 3.205464832000000000e+09
-3.999999981931778859e+00 2.159805440000000000e+09
-3.959999982112461847e+00 2.185304576000000000e+09
-3.919999982293143503e+00 3.562482432000000000e+09
-3.879999982473826936e+00 6.067186688000000000e+09
-3.839999982654508148e+00 5.330770432000000000e+09
-3.799999982835189805e+00 7.638669440000000000e+08
-3.759999983015873237e+00 3.356829184000000000e+09
-3.719999983196554894e+00 1.463975628800000000e+10
-3.679999983377236550e+00 1.570138112000000000e+10
-3.639999983557919538e+00 1.241222041600000000e+10
-3.599999983738601195e+00 2.423838105600000000e+10
-3.559999983919284627e+00 4.797488332800000000e+10
-3.519999984099966284e+00 7.147352883200000000e+10
-3.479999984280647940e+00 9.170159206400000000e+10
-3.439999984461330929e+00 9.343624806400000000e+10
-3.399999984642012585e+00 7.215467724800000000e+10
-3.359999984822694241e+00 4.747284889600000000e+10
-3.319999985003377230e+00 2.665209856000000000e+10
-3.279999985184058886e+00 1.974845235200000000e+10
-3.239999985364742319e+00 1.783302553600000000e+10
-3.199999985545423975e+00 1.734675865600000000e+10
-3.159999985726105631e+00 1.232980172800000000e+10
-3.119999985906788620e+00 9.127518208000000000e+09
-3.079999986087470276e+00 1.645900492800000000e+10
-3.039999986268151932e+00 2.747311718400000000e+10
-2.999999986448835365e+00 2.400137011200000000e+10
-2.959999986629517021e+00 1.522436812800000000e+10
-2.919999986810200010e+00 1.201158860800000000e+10
-2.879999986990881666e+00 6.597914624000000000e+09
-2.839999987171563323e+00 1.681890304000000000e+10
-2.799999987352246311e+00 5.312845004800000000e+10
-2.759999987532927967e+00 8.620897894400000000e+10
-2.719999987713609624e+00 9.008991436800000000e+10
-2.679999987894293056e+00 6.616276992000000000e+10
-2.639999988074974713e+00 3.550010572800000000e+10
-2.599999988255656369e+00 1.616681267200000000e+10
-2.559999988436339358e+00 1.202892390400000000e+10
-2.519999988617021014e+00 2.155973632000000000e+10
-2.479999988797704447e+00 3.506017484800000000e+10
-2.439999988978386103e+00 4.690524569600000000e+10
-2.399999989159067315e+00 5.527296000000000000e+10
-2.359999989339750748e+00 5.096520908800000000e+10
-2.319999989520432404e+00 4.121070796800000000e+10
-2.279999989701114060e+00 2.944924467200000000e+10
-2.239999989881797049e+00 1.543183667200000000e+10
-2.199999990062478705e+00 6.111250944000000000e+09
-2.159999990243162138e+00 7.187070976000000000e+09
-2.119999990423843794e+00 1.521632153600000000e+10
-2.079999990604525451e+00 2.144182476800000000e+10
-2.039999990785208439e+00 1.792262144000000000e+10
-1.999999990965890095e+00 9.044118528000000000e+09
-1.959999991146571752e+00 1.687051648000000000e+09
-1.919999991327254962e+00 3.092504320000000000e+08
-1.879999991507936619e+00 7.054812800000000000e+08
-1.839999991688619829e+00 1.761002624000000000e+09
-1.799999991869301486e+00 3.857321472000000000e+09
-1.759999992049983142e+00 5.025637888000000000e+09
-1.719999992230666352e+00 9.935395840000000000e+09
-1.679999992411347787e+00 1.455796838400000000e+10
-1.639999992592029443e+00 2.450805350400000000e+10
-1.599999992772712654e+00 3.750599065600000000e+10
-1.559999992953394310e+00 4.318566809600000000e+10
-1.519999993134077521e+00 2.920574976000000000e+10
-1.479999993314759177e+00 1.613864550400000000e+10
-1.439999993495440833e+00 1.776976512000000000e+09
-1.399999993676124044e+00 6.837268992000000000e+09
-1.359999993856805700e+00 3.535733555200000000e+10
-1.319999994037487356e+00 7.534410137600000000e+10
-1.279999994218170567e+00 8.332176588800000000e+10
-1.239999994398852223e+00 6.670384332800000000e+10
-1.199999994579533658e+00 4.056889753600000000e+10
-1.159999994760216868e+00 2.728983756800000000e+10
-1.119999994940898524e+00 2.638714880000000000e+10
-1.079999995121581735e+00 2.103446118400000000e+10
-1.039999995302263391e+00 1.271911424000000000e+10
-9.999999954829450477e-01 9.873661952000000000e+09
-9.599999956636282583e-01 5.163133440000000000e+09
-9.199999958443099146e-01 1.500978432000000000e+09
-8.799999960249915709e-01 8.108810240000000000e+09
-8.399999962056747815e-01 1.188353638400000000e+10
-7.999999963863563268e-01 3.349402368000000000e+09
-7.599999965670395374e-01 8.917181440000000000e+09
-7.199999967477211937e-01 2.397075865600000000e+10
-6.799999969284028500e-01 2.945000243200000000e+10
-6.399999971090860607e-01 5.471370444800000000e+10
-5.999999972897677170e-01 5.105423564800000000e+10
-5.599999974704492622e-01 6.915624960000000000e+10
-5.199999976511324729e-01 1.476710563840000000e+11
-4.799999978318141292e-01 2.173082173440000000e+11
-4.399999980124973398e-01 2.088366407680000000e+11
-3.999999981931789961e-01 1.371442790400000000e+11
-3.599999983738605969e-01 5.708749619200000000e+10
-3.199999985545438075e-01 1.160613478400000000e+10
-2.799999987352254638e-01 2.497132544000000000e+09
-2.399999989159070646e-01 1.050929049600000000e+10
-1.999999990965902752e-01 1.708780646400000000e+10
-1.599999992772719037e-01 1.189755187200000000e+10
-1.199999994579535323e-01 4.198309632000000000e+09
-7.999999963863674290e-02 1.764032128000000000e+09
-3.999999981931837145e-02 9.173161984000000000e+09
-1.577721810442023611e-15 2.194150400000000000e+10
3.999999981931678938e-02 1.440359628800000000e+10
7.999999963863516084e-02 4.769156096000000000e+09
1.199999994579519502e-01 1.803440537600000000e+10
1.599999992772703217e-01 4.201974988800000000e+10
1.999999990965886931e-01 4.212352204800000000e+10
2.399999989159054825e-01 1.365381836800000000e+10
2.799999987352238540e-01 3.275079424000000000e+09
3.199999985545406433e-01 7.790962560000000000e+08
3.599999983738590426e-01 5.126862336000000000e+09
3.999999981931773863e-01 4.771500032000000000e+09
4.399999980124941756e-01 6.787089408000000000e+09
4.799999978318125748e-01 5.724111257600000000e+10
5.199999976511309185e-01 1.301175746560000000e+11
5.599999974704477079e-01 1.602056028160000000e+11
5.999999972897660516e-01 1.428483604480000000e+11
6.399999971090828410e-01 1.006476820480000000e+11
6.799999969284012957e-01 5.337706496000000000e+10
7.199999967477196394e-01 1.756872908800000000e+10
7.599999965670364288e-01 4.334920192000000000e+09
7.999999963863547725e-01 9.916000256000000000e+09
8.399999962056731162e-01 1.860720230400000000e+10
8.799999960249899056e-01 2.340535091200000000e+10
9.199999958443083603e-01 2.181662515200000000e+10
9.599999956636251497e-01 2.293859123200000000e+10
9.999999954829434934e-01 2.443856281600000000e+10
1.039999995302261837e+00 3.123175424000000000e+10
1.079999995121578626e+00 3.807110758400000000e+10
1.119999994940896970e+00 4.767784960000000000e+10
1.159999994760215314e+00 3.317757132800000000e+10
1.199999994579532103e+00 1.598475366400000000e+10
1.239999994398850447e+00 5.399732224000000000e+09
1.279999994218169013e+00 3.587822336000000000e+09
1.319999994037487356e+00 2.095061376000000000e+09
1.359999993856802591e+00 6.537952768000000000e+09
1.399999993676120935e+00 1.913432473600000000e+10
1.439999993495439279e+00 3.147019673600000000e+10
1.479999993314757623e+00 2.996886528000000000e+10
1.519999993134075966e+00 2.698710016000000000e+10
1.559999992953391201e+00 3.487490867200000000e+10
1.599999992772709545e+00 3.565373849600000000e+10
1.639999992592027889e+00 2.309649612800000000e+10
1.679999992411346232e+00 2.872935168000000000e+09
1.719999992230664798e+00 6.989015552000000000e+09
1.759999992049983142e+00 2.596687257600000000e+10
1.799999991869298377e+00 3.573952512000000000e+10
1.839999991688616721e+00 4.133735628800000000e+10
1.879999991507935064e+00 5.175818649600000000e+10
1.919999991327253408e+00 6.793700966400000000e+10
1.959999991146571752e+00 5.551236300800000000e+10
1.999999990965886987e+00 1.406353817600000000e+10
2.039999990785205330e+00 2.892363366400000000e+10
2.079999990604523674e+00 1.243108884480000000e+11
2.119999990423842018e+00 1.616031088640000000e+11
2.159999990243160362e+00 1.028502159360000000e+11
2.199999990062475597e+00 3.834950860800000000e+10
2.239999989881793940e+00 8.050956288000000000e+09
2.279999989701112284e+00 2.251748352000000000e+09
2.319999989520430628e+00 7.445019648000000000e+09
2.359999989339748971e+00 1.740782387200000000e+10
2.399999989159067315e+00 1.538840576000000000e+10
2.439999988978382550e+00 8.414382592000000000e+09
2.479999988797700894e+00 8.762472448000000000e+09
2.519999988617019682e+00 2.941579878400000000e+10
2.559999988436338025e+00 5.781750579200000000e+10
2.599999988255656369e+00 7.466976051200000000e+10
2.639999988074971604e+00 7.169062502400000000e+10
2.679999987894289948e+00 5.681456742400000000e+10
2.719999987713608292e+00 3.503330099200000000e+10
2.759999987532926635e+00 2.201157632000000000e+10
2.799999987352244979e+00 2.344636006400000000e+10
2.839999987171563323e+00 3.287184384000000000e+10
2.879999986990878558e+00 3.301532672000000000e+10
2.919999986810196901e+00 2.374688972800000000e+10
2.959999986629515245e+00 8.224852480000000000e+09
2.999999986448833589e+00 9.256892800000000000e+08
3.039999986268151932e+00 2.373661440000000000e+09
3.079999986087467168e+00 1.084392140800000000e+10
3.119999985906785511e+00 1.305050521600000000e+10
3.159999985726103855e+00 2.287539814400000000e+10
3.199999985545422199e+00 4.326312755200000000e+10
3.239999985364740542e+00 4.063055872000000000e+10
3.279999985184055777e+00 4.130646425600000000e+10
3.319999985003374121e+00 7.341527040000000000e+10
3.359999984822692465e+00 9.542620774400000000e+10
3.399999984642010808e+00 6.984180531200000000e+10
3.439999984461329596e+00 2.780277760000000000e+10
3.479999984280647940e+00 8.278311424000000000e+09
3.519999984099963175e+00 2.269947904000000000e+09
3.559999983919281519e+00 8.457613440000000000e+08
3.599999983738599862e+00 2.341020672000000000e+09
3.639999983557918206e+00 1.058881843200000000e+10
3.679999983377236550e+00 2.337303961600000000e+10
3.719999983196551785e+00 3.284358144000000000e+10
3.759999983015870129e+00 2.864691609600000000e+10
3.799999982835188472e+00 1.547145216000000000e+10
3.839999982654506816e+00 6.227037696000000000e+09
3.879999982473825160e+00 4.313106944000000000e+09
3.919999982293143503e+00 6.329328128000000000e+09
3.959999982112458738e+00 6.430098944000000000e+09
3.999999981931777082e+00 3.479407360000000000e+09
4.039999981751095426e+00 1.199224524800000000e+10
