# x = Time (fs); y = Power (W)
-1.103999995013171009e+01 1.593755136000000000e+09
-1.099999995031239131e+01 2.286709760000000000e+09
-1.095999995049307429e+01 3.188440576000000000e+09
-1.091999995067375551e+01 4.053395712000000000e+09
-1.087999995085443850e+01 4.509575680000000000e+09
-1.083999995103512148e+01 4.416954880000000000e+09
-1.079999995121580270e+01 3.937635072000000000e+09
-1.075999995139648568e+01 3.295962880000000000e+09
-1.071999995157716690e+01 2.683111680000000000e+09
-1.067999995175784989e+01 2.210720512000000000e+09
-1.063999995193853110e+01 1.874799104000000000e+09
-1.059999995211921409e+01 1.713678848000000000e+09
-1.055999995229989707e+01 1.719234176000000000e+09
-1.051999995248057829e+01 1.889404672000000000e+09
-1.047999995266126128e+01 2.259596544000000000e+09
-1.043999995284194249e+01 2.870769152000000000e+09
-1.039999995302262548e+01 3.730998272000000000e+09
-1.035999995320330669e+01 4.753112064000000000e+09
-1.031999995338398968e+01 5.728335872000000000e+09
-1.027999995356467089e+01 6.136045568000000000e+09
-1.023999995374535388e+01 5.592758272000000000e+09
-1.019999995392603687e+01 4.357855744000000000e+09
-1.015999995410671808e+01 2.944431104000000000e+09
-1.011999995428740107e+01 1.790074112000000000e+09
-1.007999995446808228e+01 1.016131008000000000e+09
-1.003999995464876527e+01 5.439838080000000000e+08
-9.999999954829448257e+00 2.793470400000000000e+08
-9.959999955010129469e+00 1.446038880000000000e+08
-9.919999955190810681e+00 8.416473600000000000e+07
-9.879999955371493670e+00 6.948257600000000000e+07
-9.839999955552174882e+00 1.009748160000000000e+08
-9.799999955732859647e+00 1.942474080000000000e+08
-9.759999955913540859e+00 3.674117760000000000e+08
-9.719999956094222071e+00 6.369020160000000000e+08
-9.679999956274905060e+00 9.810785920000000000e+08
-9.639999956455586272e+00 1.511969920000000000e+09
-9.599999956636269260e+00 2.285660928000000000e+09
-9.559999956816952249e+00 3.148146688000000000e+09
-9.519999956997633461e+00 3.877447168000000000e+09
-9.479999957178316450e+00 4.207695616000000000e+09
-9.439999957358997662e+00 4.028531712000000000e+09
-9.399999957539680651e+00 3.616906496000000000e+09
-9.359999957720363639e+00 3.138765568000000000e+09
-9.319999957901044851e+00 2.676454144000000000e+09
-9.279999958081726064e+00 2.354149376000000000e+09
-9.239999958262409052e+00 2.140167808000000000e+09
-9.199999958443092041e+00 2.001185408000000000e+09
-9.159999958623775029e+00 1.940390656000000000e+09
-9.119999958804456242e+00 1.945263360000000000e+09
-9.079999958985137454e+00 1.947134976000000000e+09
-9.039999959165818666e+00 1.971512832000000000e+09
-8.999999959346501655e+00 1.980292352000000000e+09
-8.959999959527186419e+00 1.967499776000000000e+09
-8.919999959707867632e+00 1.926860928000000000e+09
-8.879999959888548844e+00 1.842173952000000000e+09
-8.839999960069230056e+00 1.676810112000000000e+09
-8.799999960249913045e+00 1.460749312000000000e+09
-8.759999960430597810e+00 1.274028288000000000e+09
-8.719999960611279022e+00 1.081324544000000000e+09
-8.679999960791960234e+00 9.035256320000000000e+08
-8.639999960972641446e+00 7.410083200000000000e+08
-8.599999961153324435e+00 6.468325760000000000e+08
-8.559999961334007423e+00 6.020514560000000000e+08
-8.519999961514690412e+00 5.083456320000000000e+08
-8.479999961695371624e+00 2.962121280000000000e+08
-8.439999961876052836e+00 2.221357600000000000e+08
-8.399999962056734049e+00 7.949522560000000000e+08
-8.359999962237418814e+00 2.245936128000000000e+09
-8.319999962418101802e+00 4.250195456000000000e+09
-8.279999962598783014e+00 5.753122816000000000e+09
-8.239999962779464227e+00 6.051022336000000000e+09
-8.199999962960145439e+00 5.378016768000000000e+09
-8.159999963140828427e+00 4.572456960000000000e+09
-8.119999963321513192e+00 4.572173312000000000e+09
-8.079999963502194404e+00 5.884849664000000000e+09
-8.039999963682875617e+00 8.298438656000000000e+09
-7.999999963863557717e+00 1.151338086400000000e+10
-7.959999964044240706e+00 1.467588198400000000e+10
-7.919999964224921918e+00 1.696016998400000000e+10
-7.879999964405605795e+00 1.734367436800000000e+10
-7.839999964586287007e+00 1.576262860800000000e+10
-7.799999964766968219e+00 1.357409792000000000e+10
-7.759999964947650319e+00 1.087000473600000000e+10
-7.719999965128333308e+00 7.294145536000000000e+09
-7.679999965309016297e+00 3.795707648000000000e+09
-7.639999965489698397e+00 1.568094720000000000e+09
-7.599999965670379609e+00 7.872231040000000000e+08
-7.559999965851061710e+00 7.470330240000000000e+08
-7.519999966031744698e+00 6.311356800000000000e+08
-7.479999966212426799e+00 2.659666720000000000e+08
-7.439999966393109787e+00 1.572153600000000000e+07
-7.399999966573790999e+00 2.729893440000000000e+08
-7.359999966754473100e+00 1.307988864000000000e+09
-7.319999966935154312e+00 3.106786560000000000e+09
-7.279999967115837300e+00 5.521605120000000000e+09
-7.239999967296521177e+00 7.805935616000000000e+09
-7.199999967477202389e+00 9.646117888000000000e+09
-7.159999967657884490e+00 1.039814041600000000e+10
-7.119999967838565702e+00 9.886787584000000000e+09
-7.079999968019248691e+00 8.704280576000000000e+09
-7.039999968199931679e+00 6.610756608000000000e+09
-6.999999968380612891e+00 4.628763136000000000e+09
-6.959999968561295880e+00 3.869298176000000000e+09
-6.919999968741977980e+00 3.775048192000000000e+09
-6.879999968922660081e+00 3.976102400000000000e+09
-6.839999969103342181e+00 4.190669056000000000e+09
-6.799999969284024282e+00 4.204584192000000000e+09
-6.759999969464706382e+00 4.596009472000000000e+09
-6.719999969645389370e+00 4.932077568000000000e+09
-6.679999969826070583e+00 5.720278016000000000e+09
-6.639999970006753571e+00 6.380974592000000000e+09
-6.599999970187435672e+00 6.640072192000000000e+09
-6.559999970368116884e+00 6.808898048000000000e+09
-6.519999970548799872e+00 7.098653184000000000e+09
-6.479999970729481973e+00 6.943795712000000000e+09
-6.439999970910164961e+00 6.011297280000000000e+09
-6.399999971090846174e+00 3.463734528000000000e+09
-6.359999971271528274e+00 3.803075584000000000e+09
-6.319999971452211263e+00 8.945310720000000000e+09
-6.279999971632893363e+00 1.686791987200000000e+10
-6.239999971813575463e+00 2.667079884800000000e+10
-6.199999971994257564e+00 3.610993049600000000e+10
-6.159999972174939664e+00 4.667073331200000000e+10
-6.119999972355622653e+00 5.470917836800000000e+10
-6.079999972536303865e+00 5.347633152000000000e+10
-6.039999972716985965e+00 4.274395545600000000e+10
-5.999999972897668954e+00 2.839869235200000000e+10
-5.959999973078351054e+00 1.650739814400000000e+10
-5.919999973259033155e+00 9.221164032000000000e+09
-5.879999973439715255e+00 4.972160000000000000e+09
-5.839999973620396467e+00 3.524668160000000000e+09
-5.799999973801080344e+00 3.954594816000000000e+09
-5.759999973981761556e+00 5.549291520000000000e+09
-5.719999974162444545e+00 5.977857536000000000e+09
-5.679999974343126645e+00 5.814330880000000000e+09
-5.639999974523807857e+00 5.796634624000000000e+09
-5.599999974704491734e+00 4.799036416000000000e+09
-5.559999974885172946e+00 2.705047808000000000e+09
-5.519999975065855047e+00 4.426998400000000000e+08
-5.479999975246538035e+00 2.149993216000000000e+09
-5.439999975427219248e+00 6.984942592000000000e+09
-5.399999975607903124e+00 1.005516185600000000e+10
-5.359999975788584337e+00 1.170958540800000000e+10
-5.319999975969265549e+00 1.033927065600000000e+10
-5.279999976149949426e+00 7.844868608000000000e+09
-5.239999976330630638e+00 5.830008832000000000e+09
-5.199999976511312738e+00 4.680126976000000000e+09
-5.159999976691995727e+00 2.935858176000000000e+09
-5.119999976872676939e+00 2.864544512000000000e+09
-5.079999977053359039e+00 1.081659904000000000e+10
-5.039999977234042028e+00 2.623611289600000000e+10
-4.999999977414724128e+00 3.842981068800000000e+10
-4.959999977595407117e+00 3.583988940800000000e+10
-4.919999977776088329e+00 2.888546713600000000e+10
-4.879999977956770429e+00 1.937700864000000000e+10
-4.839999978137453418e+00 1.256950988800000000e+10
-4.799999978318134630e+00 1.058067968000000000e+10
-4.759999978498816731e+00 8.501702656000000000e+09
-4.719999978679499719e+00 3.318721280000000000e+09
-4.679999978860181820e+00 1.116797696000000000e+09
-4.639999979040864808e+00 2.479259392000000000e+09
-4.599999979221546020e+00 4.358849536000000000e+09
-4.559999979402228121e+00 1.087361638400000000e+10
-4.519999979582911109e+00 2.633307955200000000e+10
-4.479999979763593210e+00 5.092755456000000000e+10
-4.439999979944274422e+00 7.183246950400000000e+10
-4.399999980124957411e+00 6.702152089600000000e+10
-4.359999980305639511e+00 4.463064678400000000e+10
-4.319999980486322499e+00 2.088508620800000000e+10
-4.279999980667003712e+00 8.508951552000000000e+09
-4.239999980847685812e+00 2.768252672000000000e+09
-4.199999981028368801e+00 8.531230080000000000e+08
-4.159999981209050901e+00 2.971772160000000000e+08
-4.119999981389732113e+00 1.344912000000000000e+08
-4.079999981570415102e+00 1.107392384000000000e+09
-4.039999981751097202e+00 3.627592192000000000e+09
-3.999999981931778859e+00 7.650042368000000000e+09
-3.959999982112461847e+00 1.312135372800000000e+10
-3.919999982293143503e+00 2.940924723200000000e+10
-3.879999982473826936e+00 6.005136998400000000e+10
-3.839999982654508148e+00 7.972459315200000000e+10
-3.799999982835189805e+00 7.342338048000000000e+10
-3.759999983015873237e+00 4.459234099200000000e+10
-3.719999983196554894e+00 1.666277785600000000e+10
-3.679999983377236550e+00 4.654710784000000000e+09
-3.639999983557919538e+00 3.246111232000000000e+09
-3.599999983738601195e+00 7.801755648000000000e+09
-3.559999983919284627e+00 1.270179532800000000e+10
-3.519999984099966284e+00 1.171254988800000000e+10
-3.479999984280647940e+00 5.291428864000000000e+09
-3.439999984461330929e+00 6.144935040000000000e+08
-3.399999984642012585e+00 1.860509184000000000e+09
-3.359999984822694241e+00 8.577179136000000000e+09
-3.319999985003377230e+00 1.986970009600000000e+10
-3.279999985184058886e+00 3.387755929600000000e+10
-3.239999985364742319e+00 4.533896806400000000e+10
-3.199999985545423975e+00 4.399532032000000000e+10
-3.159999985726105631e+00 3.381495193600000000e+10
-3.119999985906788620e+00 2.757808537600000000e+10
-3.079999986087470276e+00 3.232354099200000000e+10
-3.039999986268151932e+00 3.575933747200000000e+10
-2.999999986448835365e+00 2.119054131200000000e+10
-2.959999986629517021e+00 1.005405081600000000e+10
-2.919999986810200010e+00 4.188072448000000000e+09
-2.879999986990881666e+00 2.800512256000000000e+09
-2.839999987171563323e+00 1.145404620800000000e+10
-2.799999987352246311e+00 1.180324147200000000e+10
-2.759999987532927967e+00 1.195824640000000000e+09
-2.719999987713609624e+00 1.740374630400000000e+10
-2.679999987894293056e+00 6.678794649600000000e+10
-2.639999988074974713e+00 9.615246131200000000e+10
-2.599999988255656369e+00 9.102094336000000000e+10
-2.559999988436339358e+00 7.917148569600000000e+10
-2.519999988617021014e+00 6.403799040000000000e+10
-2.479999988797704447e+00 4.703343001600000000e+10
-2.439999988978386103e+00 3.085594214400000000e+10
-2.399999989159067315e+00 1.476376780800000000e+10
-2.359999989339750748e+00 2.796548096000000000e+09
-2.319999989520432404e+00 3.962225920000000000e+08
-2.279999989701114060e+00 3.719733760000000000e+09
-2.239999989881797049e+00 7.600939520000000000e+09
-2.199999990062478705e+00 1.463692697600000000e+10
-2.159999990243162138e+00 3.018666393600000000e+10
-2.119999990423843794e+00 2.863128576000000000e+10
-2.079999990604525451e+00 5.426298368000000000e+09
-2.039999990785208439e+00 1.032798515200000000e+10
-1.999999990965890095e+00 3.124559257600000000e+10
-1.959999991146571752e+00 2.199186022400000000e+10
-1.919999991327254962e+00 7.991157248000000000e+09
-1.879999991507936619e+00 1.662569164800000000e+10
-1.839999991688619829e+00 4.040952627200000000e+10
-1.799999991869301486e+00 6.808355225600000000e+10
-1.759999992049983142e+00 6.744846336000000000e+10
-1.719999992230666352e+00 5.246069555200000000e+10
-1.679999992411347787e+00 6.777596313600000000e+10
-1.639999992592029443e+00 9.010289868800000000e+10
-1.599999992772712654e+00 9.595353497600000000e+10
-1.559999992953394310e+00 6.385645568000000000e+10
-1.519999993134077521e+00 2.479597772800000000e+10
-1.479999993314759177e+00 1.624983040000000000e+10
-1.439999993495440833e+00 2.291639091200000000e+10
-1.399999993676124044e+00 2.625067827200000000e+10
-1.359999993856805700e+00 1.658593894400000000e+10
-1.319999994037487356e+00 1.503299174400000000e+10
-1.279999994218170567e+00 3.199273779200000000e+10
-1.239999994398852223e+00 4.866326937600000000e+10
-1.199999994579533658e+00 5.371273625600000000e+10
-1.159999994760216868e+00 5.666133606400000000e+10
-1.119999994940898524e+00 5.921209139200000000e+10
-1.079999995121581735e+00 4.195432038400000000e+10
-1.039999995302263391e+00 2.563363635200000000e+10
-9.999999954829450477e-01 2.740156416000000000e+10
-9.599999956636282583e-01 3.977254502400000000e+10
-9.199999958443099146e-01 4.492038963200000000e+10
-8.799999960249915709e-01 3.888497868800000000e+10
-8.399999962056747815e-01 2.893481779200000000e+10
-7.999999963863563268e-01 1.999807283200000000e+10
-7.599999965670395374e-01 1.191348121600000000e+10
-7.199999967477211937e-01 8.943990784000000000e+09
-6.799999969284028500e-01 1.014605619200000000e+10
-6.399999971090860607e-01 1.684861030400000000e+10
-5.999999972897677170e-01 2.548476313600000000e+10
-5.599999974704492622e-01 1.893705932800000000e+10
-5.199999976511324729e-01 1.099117363200000000e+10
-4.799999978318141292e-01 4.045740032000000000e+09
-4.399999980124973398e-01 6.111887872000000000e+09
-3.999999981931789961e-01 1.470029107200000000e+10
-3.599999983738605969e-01 2.528292659200000000e+10
-3.199999985545438075e-01 3.794255872000000000e+10
-2.799999987352254638e-01 3.810109440000000000e+10
-2.399999989159070646e-01 2.475718246400000000e+10
-1.999999990965902752e-01 2.409769574400000000e+10
-1.599999992772719037e-01 1.566303846400000000e+10
-1.199999994579535323e-01 1.376125952000000000e+09
-7.999999963863674290e-02 4.792623104000000000e+09
-3.999999981931837145e-02 4.944331264000000000e+09
-1.577721810442023611e-15 6.379181056000000000e+09
3.999999981931678938e-02 6.681432320000000000e+08
7.999999963863516084e-02 5.401011200000000000e+09
1.199999994579519502e-01 2.536578048000000000e+10
1.599999992772703217e-01 4.018780979200000000e+10
1.999999990965886931e-01 4.542426316800000000e+10
2.399999989159054825e-01 6.017421721600000000e+10
2.799999987352238540e-01 6.003793510400000000e+10
3.199999985545406433e-01 2.506381926400000000e+10
3.599999983738590426e-01 1.069413171200000000e+10
3.999999981931773863e-01 4.556950732800000000e+10
4.399999980124941756e-01 5.003052646400000000e+10
4.799999978318125748e-01 3.384968601600000000e+10
5.199999976511309185e-01 2.867988275200000000e+10
5.599999974704477079e-01 6.109355212800000000e+10
5.999999972897660516e-01 1.130565386240000000e+11
6.399999971090828410e-01 1.033149399040000000e+11
6.799999969284012957e-01 4.822967500800000000e+10
7.199999967477196394e-01 1.354196684800000000e+10
7.599999965670364288e-01 5.070682624000000000e+09
7.999999963863547725e-01 3.905492480000000000e+09
8.399999962056731162e-01 4.291302144000000000e+09
8.799999960249899056e-01 5.452253184000000000e+09
9.199999958443083603e-01 2.039757004800000000e+10
9.599999956636251497e-01 4.562883788800000000e+10
9.999999954829434934e-01 5.252461772800000000e+10
1.039999995302261837e+00 5.171852492800000000e+10
1.079999995121578626e+00 5.273902694400000000e+10
1.119999994940896970e+00 4.689692262400000000e+10
1.159999994760215314e+00 2.935654195200000000e+10
1.199999994579532103e+00 2.211879116800000000e+10
1.239999994398850447e+00 3.277089996800000000e+10
1.279999994218169013e+00 4.921003622400000000e+10
1.319999994037487356e+00 4.375847321600000000e+10
1.359999993856802591e+00 3.941229772800000000e+10
1.399999993676120935e+00 4.358692454400000000e+10
1.439999993495439279e+00 4.031824691200000000e+10
1.479999993314757623e+00 1.897490841600000000e+10
1.519999993134075966e+00 6.911878400000000000e+08
1.559999992953391201e+00 1.809187840000000000e+10
1.599999992772709545e+00 5.257033728000000000e+10
1.639999992592027889e+00 6.663987609600000000e+10
1.679999992411346232e+00 5.703729971200000000e+10
1.719999992230664798e+00 3.677527244800000000e+10
1.759999992049983142e+00 3.169908121600000000e+10
1.799999991869298377e+00 4.062477107200000000e+10
1.839999991688616721e+00 4.293155225600000000e+10
1.879999991507935064e+00 3.206190080000000000e+10
1.919999991327253408e+00 2.174892032000000000e+10
1.959999991146571752e+00 1.949955891200000000e+10
1.999999990965886987e+00 3.396458700800000000e+10
2.039999990785205330e+00 4.023137484800000000e+10
2.079999990604523674e+00 3.241118105600000000e+10
2.119999990423842018e+00 3.342152499200000000e+10
2.159999990243160362e+00 4.912941875200000000e+10
2.199999990062475597e+00 3.970414182400000000e+10
2.239999989881793940e+00 2.037676236800000000e+10
2.279999989701112284e+00 1.332840038400000000e+10
2.319999989520430628e+00 1.448767488000000000e+10
2.359999989339748971e+00 1.317116518400000000e+10
2.399999989159067315e+00 1.491448422400000000e+10
2.439999988978382550e+00 1.754675404800000000e+10
2.479999988797700894e+00 1.036813107200000000e+10
2.519999988617019682e+00 1.131397120000000000e+10
2.559999988436338025e+00 2.887957708800000000e+10
2.599999988255656369e+00 4.178220236800000000e+10
2.639999988074971604e+00 3.784789196800000000e+10
2.679999987894289948e+00 5.200927129600000000e+10
2.719999987713608292e+00 6.139272396800000000e+10
2.759999987532926635e+00 5.388730368000000000e+10
2.799999987352244979e+00 2.258778726400000000e+10
2.839999987171563323e+00 1.976309120000000000e+09
2.879999986990878558e+00 8.150516736000000000e+09
2.919999986810196901e+00 2.977570406400000000e+10
2.959999986629515245e+00 3.960056627200000000e+10
2.999999986448833589e+00 3.216678502400000000e+10
3.039999986268151932e+00 2.200525619200000000e+10
3.079999986087467168e+00 3.934335795200000000e+10
3.119999985906785511e+00 4.885720678400000000e+10
3.159999985726103855e+00 2.322963865600000000e+10
3.199999985545422199e+00 1.643383424000000000e+09
3.239999985364740542e+00 4.749247283200000000e+10
3.279999985184055777e+00 1.261391790080000000e+11
3.319999985003374121e+00 1.515569643520000000e+11
3.359999984822692465e+00 1.078937518080000000e+11
3.399999984642010808e+00 5.974147481600000000e+10
3.439999984461329596e+00 3.152971980800000000e+10
3.479999984280647940e+00 2.475030937600000000e+10
3.519999984099963175e+00 3.419687526400000000e+10
3.559999983919281519e+00 3.463997849600000000e+10
3.599999983738599862e+00 2.463326822400000000e+10
3.639999983557918206e+00 1.085066547200000000e+10
3.679999983377236550e+00 4.027585792000000000e+09
3.719999983196551785e+00 3.536953088000000000e+09
3.759999983015870129e+00 1.288692121600000000e+10
3.799999982835188472e+00 2.678777856000000000e+10
3.839999982654506816e+00 4.386310963200000000e+10
3.879999982473825160e+00 4.981773516800000000e+10
3.919999982293143503e+00 4.410057113600000000e+10
3.959999982112458738e+00 3.351606476800000000e+10
3.999999981931777082e+00 1.668738252800000000e+10
4.039999981751095426e+00 8.193741312000000000e+09
4.079999981570414214e+00 5.510109696000000000e+09
4.119999981389732113e+00 2.393962752000000000e+09
4.159999981209047348e+00 6.591704320000000000e+08
4.199999981028366136e+00 1.987693184000000000e+09
4.239999980847684036e+00 5.407605248000000000e+09
4.279999980667002824e+00 2.331974656000000000e+09
4.319999980486320723e+00 2.369155584000000000e+09
4.359999980305635958e+00 6.447010304000000000e+09
4.399999980124954746e+00 3.864037632000000000e+09
4.439999979944272646e+00 5.603838464000000000e+09
4.479999979763591433e+00 2.137984000000000000e+10
4.519999979582909333e+00 6.162853068800000000e+10
4.559999979402228121e+00 1.154300477440000000e+11
4.599999979221543356e+00 1.236898447360000000e+11
4.639999979040861255e+00 8.619910758400000000e+10
