# x = Time (fs); y = Power (W)
-1.159999994760215891e+01 1.690897792000000000e+09
-1.155999994778284012e+01 1.972842240000000000e+09
-1.151999994796352311e+01 2.268428032000000000e+09
-1.147999994814420432e+01 2.521752064000000000e+09
-1.143999994832488731e+01 2.729260288000000000e+09
-1.139999994850557030e+01 2.861081344000000000e+09
-1.135999994868625151e+01 2.882351104000000000e+09
-1.131999994886693450e+01 2.816146432000000000e+09
-1.127999994904761571e+01 2.664993024000000000e+09
-1.123999994922829870e+01 2.459085568000000000e+09
-1.119999994940898169e+01 2.204177408000000000e+09
-1.115999994958966290e+01 1.922540032000000000e+09
-1.111999994977034589e+01 1.642496128000000000e+09
-1.107999994995102711e+01 1.395778560000000000e+09
-1.103999995013171009e+01 1.224360832000000000e+09
-1.099999995031239131e+01 1.143873792000000000e+09
-1.095999995049307429e+01 1.136723328000000000e+09
-1.091999995067375551e+01 1.197923840000000000e+09
-1.087999995085443850e+01 1.330070400000000000e+09
-1.083999995103512148e+01 1.500279296000000000e+09
-1.079999995121580270e+01 1.724973440000000000e+09
-1.075999995139648568e+01 1.996461440000000000e+09
-1.071999995157716690e+01 2.285336576000000000e+09
-1.067999995175784989e+01 2.543443456000000000e+09
-1.063999995193853110e+01 2.635693568000000000e+09
-1.059999995211921409e+01 2.444271104000000000e+09
-1.055999995229989707e+01 2.025377024000000000e+09
-1.051999995248057829e+01 1.549047040000000000e+09
-1.047999995266126128e+01 1.102244096000000000e+09
-1.043999995284194249e+01 7.516274560000000000e+08
-1.039999995302262548e+01 4.826488320000000000e+08
-1.035999995320330669e+01 2.917960000000000000e+08
-1.031999995338398968e+01 1.849523840000000000e+08
-1.027999995356467089e+01 1.352261440000000000e+08
-1.023999995374535388e+01 1.400970400000000000e+08
-1.019999995392603687e+01 1.876539520000000000e+08
-1.015999995410671808e+01 2.720300160000000000e+08
-1.011999995428740107e+01 4.269633920000000000e+08
-1.007999995446808228e+01 7.119691520000000000e+08
-1.003999995464876527e+01 1.217934592000000000e+09
-9.999999954829448257e+00 2.024268032000000000e+09
-9.959999955010129469e+00 3.088318720000000000e+09
-9.919999955190810681e+00 3.965911040000000000e+09
-9.879999955371493670e+00 4.273890304000000000e+09
-9.839999955552174882e+00 4.016647936000000000e+09
-9.799999955732859647e+00 3.566007040000000000e+09
-9.759999955913540859e+00 3.027669760000000000e+09
-9.719999956094222071e+00 2.342647296000000000e+09
-9.679999956274905060e+00 1.613374720000000000e+09
-9.639999956455586272e+00 1.051527296000000000e+09
-9.599999956636269260e+00 9.245398400000000000e+08
-9.559999956816952249e+00 1.320633344000000000e+09
-9.519999956997633461e+00 2.023674368000000000e+09
-9.479999957178316450e+00 2.772383744000000000e+09
-9.439999957358997662e+00 3.296680192000000000e+09
-9.399999957539680651e+00 3.548092672000000000e+09
-9.359999957720363639e+00 3.605010944000000000e+09
-9.319999957901044851e+00 3.539158272000000000e+09
-9.279999958081726064e+00 3.384357632000000000e+09
-9.239999958262409052e+00 3.269370624000000000e+09
-9.199999958443092041e+00 3.279633408000000000e+09
-9.159999958623775029e+00 3.480187904000000000e+09
-9.119999958804456242e+00 3.984895488000000000e+09
-9.079999958985137454e+00 4.863561216000000000e+09
-9.039999959165818666e+00 6.098590208000000000e+09
-8.999999959346501655e+00 7.824149504000000000e+09
-8.959999959527186419e+00 9.963354112000000000e+09
-8.919999959707867632e+00 1.195950592000000000e+10
-8.879999959888548844e+00 1.247728025600000000e+10
-8.839999960069230056e+00 1.070089625600000000e+10
-8.799999960249913045e+00 7.996004352000000000e+09
-8.759999960430597810e+00 5.202532864000000000e+09
-8.719999960611279022e+00 3.167962368000000000e+09
-8.679999960791960234e+00 1.879544832000000000e+09
-8.639999960972641446e+00 1.158157568000000000e+09
-8.599999961153324435e+00 8.172556160000000000e+08
-8.559999961334007423e+00 6.675886720000000000e+08
-8.519999961514690412e+00 6.474304640000000000e+08
-8.479999961695371624e+00 8.484798080000000000e+08
-8.439999961876052836e+00 1.253547392000000000e+09
-8.399999962056734049e+00 1.854085504000000000e+09
-8.359999962237418814e+00 2.804302336000000000e+09
-8.319999962418101802e+00 4.013476864000000000e+09
-8.279999962598783014e+00 5.073581056000000000e+09
-8.239999962779464227e+00 5.331648000000000000e+09
-8.199999962960145439e+00 4.518741504000000000e+09
-8.159999963140828427e+00 3.671020800000000000e+09
-8.119999963321513192e+00 3.282871552000000000e+09
-8.079999963502194404e+00 2.988780032000000000e+09
-8.039999963682875617e+00 2.403977216000000000e+09
-7.999999963863557717e+00 1.678134400000000000e+09
-7.959999964044240706e+00 1.372435968000000000e+09
-7.919999964224921918e+00 1.420421248000000000e+09
-7.879999964405605795e+00 1.451591040000000000e+09
-7.839999964586287007e+00 1.281252864000000000e+09
-7.799999964766968219e+00 7.327528960000000000e+08
-7.759999964947650319e+00 4.575899200000000000e+08
-7.719999965128333308e+00 1.307261696000000000e+09
-7.679999965309016297e+00 2.948378112000000000e+09
-7.639999965489698397e+00 4.628077056000000000e+09
-7.599999965670379609e+00 5.616590336000000000e+09
-7.559999965851061710e+00 5.728278016000000000e+09
-7.519999966031744698e+00 5.476133376000000000e+09
-7.479999966212426799e+00 5.560985600000000000e+09
-7.439999966393109787e+00 6.389502976000000000e+09
-7.399999966573790999e+00 7.871321088000000000e+09
-7.359999966754473100e+00 9.777056768000000000e+09
-7.319999966935154312e+00 1.165644492800000000e+10
-7.279999967115837300e+00 1.299157708800000000e+10
-7.239999967296521177e+00 1.285571993600000000e+10
-7.199999967477202389e+00 1.033402060800000000e+10
-7.159999967657884490e+00 7.900764672000000000e+09
-7.119999967838565702e+00 5.830534656000000000e+09
-7.079999968019248691e+00 4.401124352000000000e+09
-7.039999968199931679e+00 3.429041152000000000e+09
-6.999999968380612891e+00 2.108692736000000000e+09
-6.959999968561295880e+00 1.397260928000000000e+09
-6.919999968741977980e+00 1.172221184000000000e+09
-6.879999968922660081e+00 9.709063040000000000e+08
-6.839999969103342181e+00 1.126328192000000000e+09
-6.799999969284024282e+00 2.816250368000000000e+09
-6.759999969464706382e+00 6.185129472000000000e+09
-6.719999969645389370e+00 1.081190297600000000e+10
-6.679999969826070583e+00 1.602776985600000000e+10
-6.639999970006753571e+00 2.049256652800000000e+10
-6.599999970187435672e+00 2.010469785600000000e+10
-6.559999970368116884e+00 1.795371008000000000e+10
-6.519999970548799872e+00 1.442263142400000000e+10
-6.479999970729481973e+00 1.109311897600000000e+10
-6.439999970910164961e+00 7.742772736000000000e+09
-6.399999971090846174e+00 4.475011072000000000e+09
-6.359999971271528274e+00 1.666776320000000000e+09
-6.319999971452211263e+00 2.537728640000000000e+08
-6.279999971632893363e+00 7.571107840000000000e+08
-6.239999971813575463e+00 3.232191488000000000e+09
-6.199999971994257564e+00 7.292807168000000000e+09
-6.159999972174939664e+00 1.293627699200000000e+10
-6.119999972355622653e+00 2.089722060800000000e+10
-6.079999972536303865e+00 2.820028620800000000e+10
-6.039999972716985965e+00 2.811625472000000000e+10
-5.999999972897668954e+00 2.545034035200000000e+10
-5.959999973078351054e+00 2.199609139200000000e+10
-5.919999973259033155e+00 1.647888998400000000e+10
-5.879999973439715255e+00 1.158482329600000000e+10
-5.839999973620396467e+00 7.914343424000000000e+09
-5.799999973801080344e+00 5.751204864000000000e+09
-5.759999973981761556e+00 4.731330560000000000e+09
-5.719999974162444545e+00 4.296412160000000000e+09
-5.679999974343126645e+00 5.641897984000000000e+09
-5.639999974523807857e+00 7.202500096000000000e+09
-5.599999974704491734e+00 6.980169216000000000e+09
-5.559999974885172946e+00 4.855645184000000000e+09
-5.519999975065855047e+00 3.472909824000000000e+09
-5.479999975246538035e+00 2.419312384000000000e+09
-5.439999975427219248e+00 3.688184832000000000e+09
-5.399999975607903124e+00 1.041396633600000000e+10
-5.359999975788584337e+00 2.448135987200000000e+10
-5.319999975969265549e+00 3.507158630400000000e+10
-5.279999976149949426e+00 3.546272972800000000e+10
-5.239999976330630638e+00 2.737701888000000000e+10
-5.199999976511312738e+00 1.969010483200000000e+10
-5.159999976691995727e+00 1.404556288000000000e+10
-5.119999976872676939e+00 1.027976396800000000e+10
-5.079999977053359039e+00 8.376868352000000000e+09
-5.039999977234042028e+00 7.037873152000000000e+09
-4.999999977414724128e+00 5.819018752000000000e+09
-4.959999977595407117e+00 5.307492864000000000e+09
-4.919999977776088329e+00 5.695336960000000000e+09
-4.879999977956770429e+00 6.888474112000000000e+09
-4.839999978137453418e+00 8.267732480000000000e+09
-4.799999978318134630e+00 9.814694912000000000e+09
-4.759999978498816731e+00 1.237872844800000000e+10
-4.719999978679499719e+00 1.397536460800000000e+10
-4.679999978860181820e+00 1.245216358400000000e+10
-4.639999979040864808e+00 6.958846464000000000e+09
-4.599999979221546020e+00 1.530616320000000000e+09
-4.559999979402228121e+00 3.993484160000000000e+08
-4.519999979582911109e+00 1.754361088000000000e+09
-4.479999979763593210e+00 2.125919616000000000e+09
-4.439999979944274422e+00 1.706835712000000000e+09
-4.399999980124957411e+00 2.614260480000000000e+09
-4.359999980305639511e+00 6.826826752000000000e+09
-4.319999980486322499e+00 1.831064371200000000e+10
-4.279999980667003712e+00 3.208851660800000000e+10
-4.239999980847685812e+00 4.016786227200000000e+10
-4.199999981028368801e+00 6.022720307200000000e+10
-4.159999981209050901e+00 8.112960307200000000e+10
-4.119999981389732113e+00 8.551504281600000000e+10
-4.079999981570415102e+00 7.930697318400000000e+10
-4.039999981751097202e+00 6.930484428800000000e+10
-3.999999981931778859e+00 4.218708787200000000e+10
-3.959999982112461847e+00 1.917291110400000000e+10
-3.919999982293143503e+00 6.394585600000000000e+09
-3.879999982473826936e+00 3.159220480000000000e+09
-3.839999982654508148e+00 3.409326080000000000e+09
-3.799999982835189805e+00 4.233558528000000000e+09
-3.759999983015873237e+00 5.647777792000000000e+09
-3.719999983196554894e+00 4.881134080000000000e+09
-3.679999983377236550e+00 3.275994112000000000e+09
-3.639999983557919538e+00 1.231423744000000000e+09
-3.599999983738601195e+00 5.425094400000000000e+08
-3.559999983919284627e+00 8.588986880000000000e+09
-3.519999984099966284e+00 2.683628748800000000e+10
-3.479999984280647940e+00 3.751656243200000000e+10
-3.439999984461330929e+00 2.548327628800000000e+10
-3.399999984642012585e+00 3.136133376000000000e+09
-3.359999984822694241e+00 6.180743680000000000e+09
-3.319999985003377230e+00 2.259932160000000000e+10
-3.279999985184058886e+00 2.595599360000000000e+10
-3.239999985364742319e+00 2.319602688000000000e+10
-3.199999985545423975e+00 2.383191244800000000e+10
-3.159999985726105631e+00 2.584742912000000000e+10
-3.119999985906788620e+00 3.503073280000000000e+10
-3.079999986087470276e+00 5.415254016000000000e+10
-3.039999986268151932e+00 7.857355161600000000e+10
-2.999999986448835365e+00 8.933626675200000000e+10
-2.959999986629517021e+00 8.237454950400000000e+10
-2.919999986810200010e+00 6.019958374400000000e+10
-2.879999986990881666e+00 2.790704947200000000e+10
-2.839999987171563323e+00 1.178524364800000000e+10
-2.799999987352246311e+00 6.166327808000000000e+09
-2.759999987532927967e+00 8.802476032000000000e+09
-2.719999987713609624e+00 6.839474688000000000e+09
-2.679999987894293056e+00 1.806244224000000000e+09
-2.639999988074974713e+00 2.161278720000000000e+09
-2.599999988255656369e+00 7.385450496000000000e+09
-2.559999988436339358e+00 1.033594265600000000e+10
-2.519999988617021014e+00 1.711258316800000000e+10
-2.479999988797704447e+00 1.033524019200000000e+10
-2.439999988978386103e+00 9.150867456000000000e+09
-2.399999989159067315e+00 5.468873932800000000e+10
-2.359999989339750748e+00 1.200183705600000000e+11
-2.319999989520432404e+00 1.261283082240000000e+11
-2.279999989701114060e+00 8.344545689600000000e+10
-2.239999989881797049e+00 4.164279910400000000e+10
-2.199999990062478705e+00 1.441624576000000000e+10
-2.159999990243162138e+00 3.149249792000000000e+09
-2.119999990423843794e+00 1.779376960000000000e+08
-2.079999990604525451e+00 3.405316352000000000e+09
-2.039999990785208439e+00 8.730946560000000000e+09
-1.999999990965890095e+00 1.050763059200000000e+10
-1.959999991146571752e+00 8.093401600000000000e+09
-1.919999991327254962e+00 6.926777856000000000e+09
-1.879999991507936619e+00 1.035103436800000000e+10
-1.839999991688619829e+00 1.606904422400000000e+10
-1.799999991869301486e+00 2.052978483200000000e+10
-1.759999992049983142e+00 2.825643827200000000e+10
-1.719999992230666352e+00 3.777059225600000000e+10
-1.679999992411347787e+00 4.965037670400000000e+10
-1.639999992592029443e+00 4.754555289600000000e+10
-1.599999992772712654e+00 3.522419507200000000e+10
-1.559999992953394310e+00 2.883204915200000000e+10
-1.519999993134077521e+00 4.004777984000000000e+10
-1.479999993314759177e+00 3.305693184000000000e+10
-1.439999993495440833e+00 1.635233587200000000e+10
-1.399999993676124044e+00 1.162800128000000000e+10
-1.359999993856805700e+00 1.533235097600000000e+10
-1.319999994037487356e+00 2.260341760000000000e+10
-1.279999994218170567e+00 3.055576678400000000e+10
-1.239999994398852223e+00 3.727647948800000000e+10
-1.199999994579533658e+00 4.296648704000000000e+10
-1.159999994760216868e+00 3.633466982400000000e+10
-1.119999994940898524e+00 2.030096793600000000e+10
-1.079999995121581735e+00 1.371341209600000000e+10
-1.039999995302263391e+00 2.508844441600000000e+10
-9.999999954829450477e-01 4.618119168000000000e+10
-9.599999956636282583e-01 6.072705433600000000e+10
-9.199999958443099146e-01 5.698612428800000000e+10
-8.799999960249915709e-01 2.243488358400000000e+10
-8.399999962056747815e-01 2.230896000000000000e+08
-7.999999963863563268e-01 2.200556748800000000e+10
-7.599999965670395374e-01 5.850958643200000000e+10
-7.199999967477211937e-01 7.718937395200000000e+10
-6.799999969284028500e-01 7.883176345600000000e+10
-6.399999971090860607e-01 7.317198438400000000e+10
-5.999999972897677170e-01 6.822027264000000000e+10
-5.599999974704492622e-01 6.384143155200000000e+10
-5.199999976511324729e-01 5.621996339200000000e+10
-4.799999978318141292e-01 4.426311680000000000e+10
-4.399999980124973398e-01 2.613407744000000000e+10
-3.999999981931789961e-01 1.600022425600000000e+10
-3.599999983738605969e-01 1.154016768000000000e+10
-3.199999985545438075e-01 9.508504576000000000e+09
-2.799999987352254638e-01 6.213737472000000000e+09
-2.399999989159070646e-01 4.890885632000000000e+09
-1.999999990965902752e-01 6.082163200000000000e+09
-1.599999992772719037e-01 7.299554816000000000e+09
-1.199999994579535323e-01 4.388961280000000000e+09
-7.999999963863674290e-02 1.692449760000000000e+08
-3.999999981931837145e-02 3.064347136000000000e+09
-1.577721810442023611e-15 1.614432563200000000e+10
3.999999981931678938e-02 3.319878451200000000e+10
7.999999963863516084e-02 4.010829824000000000e+10
1.199999994579519502e-01 3.646750720000000000e+10
1.599999992772703217e-01 2.477991116800000000e+10
1.999999990965886931e-01 1.533017497600000000e+10
2.399999989159054825e-01 1.147441152000000000e+10
2.799999987352238540e-01 1.448973721600000000e+10
3.199999985545406433e-01 1.901792665600000000e+10
3.599999983738590426e-01 1.111465574400000000e+10
3.999999981931773863e-01 2.455215616000000000e+09
4.399999980124941756e-01 2.354559180800000000e+10
4.799999978318125748e-01 5.397961932800000000e+10
5.199999976511309185e-01 8.063287296000000000e+10
5.599999974704477079e-01 1.040058368000000000e+11
5.999999972897660516e-01 1.006325432320000000e+11
6.399999971090828410e-01 8.213902950400000000e+10
6.799999969284012957e-01 6.111520358400000000e+10
7.199999967477196394e-01 3.950792704000000000e+10
7.599999965670364288e-01 2.017172070400000000e+10
7.999999963863547725e-01 7.912462336000000000e+09
8.399999962056731162e-01 2.494457856000000000e+09
8.799999960249899056e-01 5.796623872000000000e+09
9.199999958443083603e-01 8.541512704000000000e+09
9.599999956636251497e-01 4.393168384000000000e+09
9.999999954829434934e-01 8.839212032000000000e+09
1.039999995302261837e+00 2.107117772800000000e+10
1.079999995121578626e+00 6.479275008000000000e+09
1.119999994940896970e+00 7.247341568000000000e+09
1.159999994760215314e+00 6.608946790400000000e+10
1.199999994579532103e+00 1.124253696000000000e+11
1.239999994398850447e+00 1.051290992640000000e+11
1.279999994218169013e+00 7.142814515200000000e+10
1.319999994037487356e+00 4.013827686400000000e+10
1.359999993856802591e+00 2.317852057600000000e+10
1.399999993676120935e+00 2.064572211200000000e+10
1.439999993495439279e+00 2.526176256000000000e+10
1.479999993314757623e+00 2.683661721600000000e+10
1.519999993134075966e+00 2.202072883200000000e+10
1.559999992953391201e+00 1.971747020800000000e+10
1.599999992772709545e+00 2.028800000000000000e+10
1.639999992592027889e+00 3.123487129600000000e+10
1.679999992411346232e+00 5.727428198400000000e+10
1.719999992230664798e+00 7.914877747200000000e+10
1.759999992049983142e+00 8.865249689600000000e+10
1.799999991869298377e+00 7.619842048000000000e+10
1.839999991688616721e+00 4.735192678400000000e+10
1.879999991507935064e+00 2.868801126400000000e+10
1.919999991327253408e+00 2.544530636800000000e+10
1.959999991146571752e+00 2.255038259200000000e+10
1.999999990965886987e+00 1.677275340800000000e+10
2.039999990785205330e+00 1.337943654400000000e+10
2.079999990604523674e+00 1.422893056000000000e+10
2.119999990423842018e+00 7.972793856000000000e+09
2.159999990243160362e+00 1.709111168000000000e+09
2.199999990062475597e+00 4.493230400000000000e+08
2.239999989881793940e+00 3.343414784000000000e+09
2.279999989701112284e+00 1.020633088000000000e+10
2.319999989520430628e+00 1.291229184000000000e+10
2.359999989339748971e+00 5.746240000000000000e+09
2.399999989159067315e+00 5.031740928000000000e+09
2.439999988978382550e+00 8.915561472000000000e+09
2.479999988797700894e+00 4.021028352000000000e+09
2.519999988617019682e+00 5.816288000000000000e+08
2.559999988436338025e+00 1.141742694400000000e+10
2.599999988255656369e+00 1.278342451200000000e+10
2.639999988074971604e+00 3.068218240000000000e+08
2.679999987894289948e+00 1.716188364800000000e+10
2.719999987713608292e+00 4.615473152000000000e+10
2.759999987532926635e+00 7.852874137600000000e+10
2.799999987352244979e+00 1.364504821760000000e+11
2.839999987171563323e+00 1.658871808000000000e+11
2.879999986990878558e+00 1.517007831040000000e+11
2.919999986810196901e+00 1.151694766080000000e+11
2.959999986629515245e+00 6.495099289600000000e+10
2.999999986448833589e+00 2.975520563200000000e+10
3.039999986268151932e+00 1.520656588800000000e+10
3.079999986087467168e+00 8.502797312000000000e+09
3.119999985906785511e+00 4.442193408000000000e+09
3.159999985726103855e+00 2.969306112000000000e+09
3.199999985545422199e+00 4.541165056000000000e+09
3.239999985364740542e+00 1.117345075200000000e+10
3.279999985184055777e+00 1.405992652800000000e+10
3.319999985003374121e+00 1.961397657600000000e+10
3.359999984822692465e+00 3.030990233600000000e+10
3.399999984642010808e+00 3.076146585600000000e+10
3.439999984461329596e+00 2.423622860800000000e+10
3.479999984280647940e+00 3.721307340800000000e+10
3.519999984099963175e+00 7.028101120000000000e+10
3.559999983919281519e+00 8.021804646400000000e+10
3.599999983738599862e+00 5.779736576000000000e+10
3.639999983557918206e+00 3.289373286400000000e+10
3.679999983377236550e+00 2.442427187200000000e+10
3.719999983196551785e+00 2.018728140800000000e+10
3.759999983015870129e+00 1.359115878400000000e+10
3.799999982835188472e+00 1.485294080000000000e+10
3.839999982654506816e+00 2.866520064000000000e+10
3.879999982473825160e+00 3.856227942400000000e+10
3.919999982293143503e+00 3.199218073600000000e+10
3.959999982112458738e+00 1.680523366400000000e+10
3.999999981931777082e+00 6.432950784000000000e+09
4.039999981751095426e+00 1.876054528000000000e+09
4.079999981570414214e+00 1.359622144000000000e+09
