# x = Time (fs); y = Power (W)
-1.135999994868625151e+01 2.033254656000000000e+09
-1.131999994886693450e+01 2.250695936000000000e+09
-1.127999994904761571e+01 2.429419776000000000e+09
-1.123999994922829870e+01 2.603600896000000000e+09
-1.119999994940898169e+01 2.763816192000000000e+09
-1.115999994958966290e+01 2.915328000000000000e+09
-1.111999994977034589e+01 3.102097152000000000e+09
-1.107999994995102711e+01 3.301822208000000000e+09
-1.103999995013171009e+01 3.518160384000000000e+09
-1.099999995031239131e+01 3.720767488000000000e+09
-1.095999995049307429e+01 3.861198336000000000e+09
-1.091999995067375551e+01 3.860007424000000000e+09
-1.087999995085443850e+01 3.651624192000000000e+09
-1.083999995103512148e+01 3.238414848000000000e+09
-1.079999995121580270e+01 2.676941824000000000e+09
-1.075999995139648568e+01 2.080364928000000000e+09
-1.071999995157716690e+01 1.556845696000000000e+09
-1.067999995175784989e+01 1.182754816000000000e+09
-1.063999995193853110e+01 9.564770560000000000e+08
-1.059999995211921409e+01 8.473392640000000000e+08
-1.055999995229989707e+01 8.268473600000000000e+08
-1.051999995248057829e+01 8.684479360000000000e+08
-1.047999995266126128e+01 9.363408640000000000e+08
-1.043999995284194249e+01 1.020412288000000000e+09
-1.039999995302262548e+01 1.151375488000000000e+09
-1.035999995320330669e+01 1.297527936000000000e+09
-1.031999995338398968e+01 1.498801280000000000e+09
-1.027999995356467089e+01 1.771551488000000000e+09
-1.023999995374535388e+01 2.085920384000000000e+09
-1.019999995392603687e+01 2.437294848000000000e+09
-1.015999995410671808e+01 2.740316160000000000e+09
-1.011999995428740107e+01 2.916714240000000000e+09
-1.007999995446808228e+01 2.941039872000000000e+09
-1.003999995464876527e+01 2.858269184000000000e+09
-9.999999954829448257e+00 2.714247424000000000e+09
-9.959999955010129469e+00 2.645540352000000000e+09
-9.919999955190810681e+00 2.769766144000000000e+09
-9.879999955371493670e+00 3.121146880000000000e+09
-9.839999955552174882e+00 3.783354112000000000e+09
-9.799999955732859647e+00 4.725364736000000000e+09
-9.759999955913540859e+00 5.802805760000000000e+09
-9.719999956094222071e+00 6.726163968000000000e+09
-9.679999956274905060e+00 6.933205504000000000e+09
-9.639999956455586272e+00 6.147291648000000000e+09
-9.599999956636269260e+00 4.753478656000000000e+09
-9.559999956816952249e+00 3.225772288000000000e+09
-9.519999956997633461e+00 1.898130560000000000e+09
-9.479999957178316450e+00 9.751427200000000000e+08
-9.439999957358997662e+00 4.180316800000000000e+08
-9.399999957539680651e+00 1.148698880000000000e+08
-9.359999957720363639e+00 2.724043600000000000e+07
-9.319999957901044851e+00 2.549906560000000000e+08
-9.279999958081726064e+00 1.068840832000000000e+09
-9.239999958262409052e+00 2.769756928000000000e+09
-9.199999958443092041e+00 5.415131648000000000e+09
-9.159999958623775029e+00 8.641482752000000000e+09
-9.119999958804456242e+00 1.150514073600000000e+10
-9.079999958985137454e+00 1.245410918400000000e+10
-9.039999959165818666e+00 1.100690636800000000e+10
-8.999999959346501655e+00 8.464877056000000000e+09
-8.959999959527186419e+00 5.740107776000000000e+09
-8.919999959707867632e+00 3.712670464000000000e+09
-8.879999959888548844e+00 2.352666112000000000e+09
-8.839999960069230056e+00 1.447063168000000000e+09
-8.799999960249913045e+00 8.973043840000000000e+08
-8.759999960430597810e+00 5.510945920000000000e+08
-8.719999960611279022e+00 3.099736640000000000e+08
-8.679999960791960234e+00 1.491212160000000000e+08
-8.639999960972641446e+00 6.347735200000000000e+07
-8.599999961153324435e+00 3.061675200000000000e+07
-8.559999961334007423e+00 3.840103200000000000e+07
-8.519999961514690412e+00 6.801448800000000000e+07
-8.479999961695371624e+00 1.215794240000000000e+08
-8.439999961876052836e+00 2.097092320000000000e+08
-8.399999962056734049e+00 3.455968000000000000e+08
-8.359999962237418814e+00 5.058939200000000000e+08
-8.319999962418101802e+00 6.387960320000000000e+08
-8.279999962598783014e+00 6.829099520000000000e+08
-8.239999962779464227e+00 5.978256000000000000e+08
-8.199999962960145439e+00 4.012958080000000000e+08
-8.159999963140828427e+00 2.163299360000000000e+08
-8.119999963321513192e+00 1.580766880000000000e+08
-8.079999963502194404e+00 2.988412160000000000e+08
-8.039999963682875617e+00 6.320403840000000000e+08
-7.999999963863557717e+00 9.454146560000000000e+08
-7.959999964044240706e+00 9.085541120000000000e+08
-7.919999964224921918e+00 7.009367680000000000e+08
-7.879999964405605795e+00 7.734042880000000000e+08
-7.839999964586287007e+00 1.292532224000000000e+09
-7.799999964766968219e+00 3.165451776000000000e+09
-7.759999964947650319e+00 8.225018368000000000e+09
-7.719999965128333308e+00 1.740706201600000000e+10
-7.679999965309016297e+00 2.941790003200000000e+10
-7.639999965489698397e+00 3.781825331200000000e+10
-7.599999965670379609e+00 3.932219392000000000e+10
-7.559999965851061710e+00 3.597404569600000000e+10
-7.519999966031744698e+00 2.995277004800000000e+10
-7.479999966212426799e+00 2.090956185600000000e+10
-7.439999966393109787e+00 1.468060262400000000e+10
-7.399999966573790999e+00 9.318608896000000000e+09
-7.359999966754473100e+00 6.277138944000000000e+09
-7.319999966935154312e+00 5.241456640000000000e+09
-7.279999967115837300e+00 5.073137664000000000e+09
-7.239999967296521177e+00 5.568416768000000000e+09
-7.199999967477202389e+00 6.513653248000000000e+09
-7.159999967657884490e+00 6.690917376000000000e+09
-7.119999967838565702e+00 5.687337984000000000e+09
-7.079999968019248691e+00 4.175376640000000000e+09
-7.039999968199931679e+00 2.541413376000000000e+09
-6.999999968380612891e+00 1.660835840000000000e+09
-6.959999968561295880e+00 1.162139008000000000e+09
-6.919999968741977980e+00 9.109025280000000000e+08
-6.879999968922660081e+00 9.661738240000000000e+08
-6.839999969103342181e+00 1.089928064000000000e+09
-6.799999969284024282e+00 1.386520064000000000e+09
-6.759999969464706382e+00 1.928039424000000000e+09
-6.719999969645389370e+00 2.998596096000000000e+09
-6.679999969826070583e+00 4.445307392000000000e+09
-6.639999970006753571e+00 6.417219584000000000e+09
-6.599999970187435672e+00 9.488013312000000000e+09
-6.559999970368116884e+00 1.787872665600000000e+10
-6.519999970548799872e+00 2.982048768000000000e+10
-6.479999970729481973e+00 3.906875801600000000e+10
-6.439999970910164961e+00 4.220907929600000000e+10
-6.399999971090846174e+00 4.044469043200000000e+10
-6.359999971271528274e+00 3.241641369600000000e+10
-6.319999971452211263e+00 2.247599923200000000e+10
-6.279999971632893363e+00 1.243247308800000000e+10
-6.239999971813575463e+00 5.918639104000000000e+09
-6.199999971994257564e+00 2.638656000000000000e+09
-6.159999972174939664e+00 1.033251200000000000e+09
-6.119999972355622653e+00 5.470247680000000000e+08
-6.079999972536303865e+00 1.658598560000000000e+08
-6.039999972716985965e+00 2.369040160000000000e+08
-5.999999972897668954e+00 5.815385600000000000e+08
-5.959999973078351054e+00 4.645406720000000000e+08
-5.919999973259033155e+00 1.633046400000000000e+09
-5.879999973439715255e+00 4.928995840000000000e+09
-5.839999973620396467e+00 7.412920320000000000e+09
-5.799999973801080344e+00 9.562298368000000000e+09
-5.759999973981761556e+00 1.383798988800000000e+10
-5.719999974162444545e+00 1.745190092800000000e+10
-5.679999974343126645e+00 2.097508556800000000e+10
-5.639999974523807857e+00 1.975345356800000000e+10
-5.599999974704491734e+00 1.787139276800000000e+10
-5.559999974885172946e+00 1.579187200000000000e+10
-5.519999975065855047e+00 1.478043136000000000e+10
-5.479999975246538035e+00 1.302211276800000000e+10
-5.439999975427219248e+00 1.314926592000000000e+10
-5.399999975607903124e+00 1.529926144000000000e+10
-5.359999975788584337e+00 1.277891993600000000e+10
-5.319999975969265549e+00 9.791387648000000000e+09
-5.279999976149949426e+00 1.897895731200000000e+10
-5.239999976330630638e+00 3.526222643200000000e+10
-5.199999976511312738e+00 3.835575091200000000e+10
-5.159999976691995727e+00 2.449028096000000000e+10
-5.119999976872676939e+00 9.187497984000000000e+09
-5.079999977053359039e+00 3.237063680000000000e+09
-5.039999977234042028e+00 5.330978816000000000e+09
-4.999999977414724128e+00 1.256434892800000000e+10
-4.959999977595407117e+00 1.884324864000000000e+10
-4.919999977776088329e+00 3.123301785600000000e+10
-4.879999977956770429e+00 4.497772953600000000e+10
-4.839999978137453418e+00 4.318591795200000000e+10
-4.799999978318134630e+00 3.185038540800000000e+10
-4.759999978498816731e+00 2.096141312000000000e+10
-4.719999978679499719e+00 1.314079232000000000e+10
-4.679999978860181820e+00 7.265227264000000000e+09
-4.639999979040864808e+00 6.478989312000000000e+09
-4.599999979221546020e+00 7.958979584000000000e+09
-4.559999979402228121e+00 1.028181401600000000e+10
-4.519999979582911109e+00 1.163986739200000000e+10
-4.479999979763593210e+00 1.299723264000000000e+10
-4.439999979944274422e+00 1.477110681600000000e+10
-4.399999980124957411e+00 1.691052236800000000e+10
-4.359999980305639511e+00 2.168305868800000000e+10
-4.319999980486322499e+00 2.709382348800000000e+10
-4.279999980667003712e+00 2.843911782400000000e+10
-4.239999980847685812e+00 2.373388288000000000e+10
-4.199999981028368801e+00 1.429203558400000000e+10
-4.159999981209050901e+00 8.905122816000000000e+09
-4.119999981389732113e+00 9.837476864000000000e+09
-4.079999981570415102e+00 1.162252697600000000e+10
-4.039999981751097202e+00 1.510871961600000000e+10
-3.999999981931778859e+00 1.787681382400000000e+10
-3.959999982112461847e+00 2.248499200000000000e+10
-3.919999982293143503e+00 2.724035584000000000e+10
-3.879999982473826936e+00 2.398126080000000000e+10
-3.839999982654508148e+00 1.431395635200000000e+10
-3.799999982835189805e+00 7.246856704000000000e+09
-3.759999983015873237e+00 4.183757568000000000e+09
-3.719999983196554894e+00 3.575537920000000000e+09
-3.679999983377236550e+00 5.194799616000000000e+09
-3.639999983557919538e+00 1.018255769600000000e+10
-3.599999983738601195e+00 1.153080012800000000e+10
-3.559999983919284627e+00 5.112231424000000000e+09
-3.519999984099966284e+00 1.730604288000000000e+09
-3.479999984280647940e+00 1.585569689600000000e+10
-3.439999984461330929e+00 3.857306009600000000e+10
-3.399999984642012585e+00 5.726377574400000000e+10
-3.359999984822694241e+00 6.261218918400000000e+10
-3.319999985003377230e+00 5.484969574400000000e+10
-3.279999985184058886e+00 3.797520793600000000e+10
-3.239999985364742319e+00 2.292613324800000000e+10
-3.199999985545423975e+00 1.476414566400000000e+10
-3.159999985726105631e+00 1.430301900800000000e+10
-3.119999985906788620e+00 2.048543129600000000e+10
-3.079999986087470276e+00 1.765894963200000000e+10
-3.039999986268151932e+00 7.928824832000000000e+09
-2.999999986448835365e+00 7.492241408000000000e+09
-2.959999986629517021e+00 2.277364940800000000e+10
-2.919999986810200010e+00 3.201365196800000000e+10
-2.879999986990881666e+00 3.544830361600000000e+10
-2.839999987171563323e+00 4.058150912000000000e+10
-2.799999987352246311e+00 4.029899161600000000e+10
-2.759999987532927967e+00 3.476471398400000000e+10
-2.719999987713609624e+00 2.344796364800000000e+10
-2.679999987894293056e+00 1.566328524800000000e+10
-2.639999988074974713e+00 1.453110272000000000e+10
-2.599999988255656369e+00 2.141253836800000000e+10
-2.559999988436339358e+00 2.930079539200000000e+10
-2.519999988617021014e+00 3.439316582400000000e+10
-2.479999988797704447e+00 4.228895129600000000e+10
-2.439999988978386103e+00 4.592169779200000000e+10
-2.399999989159067315e+00 2.874383769600000000e+10
-2.359999989339750748e+00 7.794771456000000000e+09
-2.319999989520432404e+00 6.860509696000000000e+09
-2.279999989701114060e+00 1.982333747200000000e+10
-2.239999989881797049e+00 2.747545190400000000e+10
-2.199999990062478705e+00 1.867545190400000000e+10
-2.159999990243162138e+00 4.420254208000000000e+09
-2.119999990423843794e+00 2.053572992000000000e+09
-2.079999990604525451e+00 2.055456768000000000e+09
-2.039999990785208439e+00 7.704210560000000000e+08
-1.999999990965890095e+00 8.523992576000000000e+09
-1.959999991146571752e+00 1.157763379200000000e+10
-1.919999991327254962e+00 3.077107302400000000e+10
-1.879999991507936619e+00 4.411075788800000000e+10
-1.839999991688619829e+00 5.210756300800000000e+10
-1.799999991869301486e+00 1.091936665600000000e+11
-1.759999992049983142e+00 1.772461916160000000e+11
-1.719999992230666352e+00 1.918849024000000000e+11
-1.679999992411347787e+00 1.451483463680000000e+11
-1.639999992592029443e+00 7.428585062400000000e+10
-1.599999992772712654e+00 2.495413043200000000e+10
-1.559999992953394310e+00 5.545137152000000000e+09
-1.519999993134077521e+00 5.013207552000000000e+09
-1.479999993314759177e+00 9.897194496000000000e+09
-1.439999993495440833e+00 1.265359257600000000e+10
-1.399999993676124044e+00 1.367886540800000000e+10
-1.359999993856805700e+00 1.287631052800000000e+10
-1.319999994037487356e+00 8.426368512000000000e+09
-1.279999994218170567e+00 3.289592320000000000e+09
-1.239999994398852223e+00 2.131398144000000000e+09
-1.199999994579533658e+00 3.215654912000000000e+09
-1.159999994760216868e+00 2.363192320000000000e+09
-1.119999994940898524e+00 1.254448000000000000e+09
-1.079999995121581735e+00 3.048683200000000000e+08
-1.039999995302263391e+00 1.979445632000000000e+09
-9.999999954829450477e-01 8.671474688000000000e+09
-9.599999956636282583e-01 8.969603072000000000e+09
-9.199999958443099146e-01 3.579762432000000000e+09
-8.799999960249915709e-01 2.731618099200000000e+10
-8.399999962056747815e-01 8.781633945600000000e+10
-7.999999963863563268e-01 1.287644856320000000e+11
-7.599999965670395374e-01 1.131490017280000000e+11
-7.199999967477211937e-01 6.841407488000000000e+10
-6.799999969284028500e-01 2.881293926400000000e+10
-6.399999971090860607e-01 4.920415744000000000e+09
-5.999999972897677170e-01 8.008033280000000000e+08
-5.599999974704492622e-01 1.040716492800000000e+10
-5.199999976511324729e-01 2.444755558400000000e+10
-4.799999978318141292e-01 3.978337484800000000e+10
-4.399999980124973398e-01 4.786847334400000000e+10
-3.999999981931789961e-01 2.489682534400000000e+10
-3.599999983738605969e-01 1.703804320000000000e+08
-3.199999985545438075e-01 3.312344883200000000e+10
-2.799999987352254638e-01 8.497795072000000000e+10
-2.399999989159070646e-01 1.003590287360000000e+11
-1.999999990965902752e-01 7.455029657600000000e+10
-1.599999992772719037e-01 3.889689395200000000e+10
-1.199999994579535323e-01 1.687689523200000000e+10
-7.999999963863674290e-02 1.246420480000000000e+10
-3.999999981931837145e-02 1.926373580800000000e+10
-1.577721810442023611e-15 3.436419072000000000e+10
3.999999981931678938e-02 5.615073280000000000e+10
7.999999963863516084e-02 7.426174156800000000e+10
1.199999994579519502e-01 7.759260876800000000e+10
1.599999992772703217e-01 6.862622310400000000e+10
1.999999990965886931e-01 6.042362675200000000e+10
2.399999989159054825e-01 6.562584576000000000e+10
2.799999987352238540e-01 8.075596595200000000e+10
3.199999985545406433e-01 7.139313254400000000e+10
3.599999983738590426e-01 4.089978470400000000e+10
3.999999981931773863e-01 3.971414425600000000e+10
4.399999980124941756e-01 6.189087948800000000e+10
4.799999978318125748e-01 4.274715033600000000e+10
5.199999976511309185e-01 1.399890022400000000e+10
5.599999974704477079e-01 5.256074240000000000e+09
5.999999972897660516e-01 1.064940646400000000e+10
6.399999971090828410e-01 1.479268659200000000e+10
6.799999969284012957e-01 1.560683827200000000e+10
7.199999967477196394e-01 1.454124544000000000e+10
7.599999965670364288e-01 1.160143360000000000e+10
7.999999963863547725e-01 6.082653184000000000e+09
8.399999962056731162e-01 7.546093056000000000e+09
8.799999960249899056e-01 1.899671347200000000e+10
9.199999958443083603e-01 3.131804467200000000e+10
9.599999956636251497e-01 3.794614272000000000e+10
9.999999954829434934e-01 4.129585561600000000e+10
1.039999995302261837e+00 4.503066214400000000e+10
1.079999995121578626e+00 2.958271692800000000e+10
1.119999994940896970e+00 7.919538176000000000e+09
1.159999994760215314e+00 4.466470912000000000e+10
1.199999994579532103e+00 1.134436925440000000e+11
1.239999994398850447e+00 1.035886755840000000e+11
1.279999994218169013e+00 4.327788134400000000e+10
1.319999994037487356e+00 7.025076224000000000e+09
1.359999993856802591e+00 7.823659008000000000e+09
1.399999993676120935e+00 1.970477260800000000e+10
1.439999993495439279e+00 3.068095283200000000e+10
1.479999993314757623e+00 2.792980684800000000e+10
1.519999993134075966e+00 1.849505587200000000e+10
1.559999992953391201e+00 6.748165632000000000e+09
1.599999992772709545e+00 2.194957056000000000e+09
1.639999992592027889e+00 1.177512140800000000e+10
1.679999992411346232e+00 3.026272665600000000e+10
1.719999992230664798e+00 4.194275737600000000e+10
1.759999992049983142e+00 3.855422259200000000e+10
1.799999991869298377e+00 2.721580032000000000e+10
1.839999991688616721e+00 2.055998668800000000e+10
1.879999991507935064e+00 2.937374924800000000e+10
1.919999991327253408e+00 2.575931187200000000e+10
1.959999991146571752e+00 3.129072896000000000e+09
1.999999990965886987e+00 9.451461632000000000e+09
2.039999990785205330e+00 3.937517977600000000e+10
2.079999990604523674e+00 6.340539187200000000e+10
2.119999990423842018e+00 8.352636108800000000e+10
2.159999990243160362e+00 1.036941393920000000e+11
2.199999990062475597e+00 1.033715957760000000e+11
2.239999989881793940e+00 7.261394534400000000e+10
2.279999989701112284e+00 3.619615539200000000e+10
2.319999989520430628e+00 2.382620876800000000e+10
2.359999989339748971e+00 2.977415987200000000e+10
2.399999989159067315e+00 2.567256064000000000e+10
2.439999988978382550e+00 7.035734016000000000e+09
2.479999988797700894e+00 4.366781440000000000e+09
2.519999988617019682e+00 1.789369958400000000e+10
2.559999988436338025e+00 3.608420761600000000e+10
2.599999988255656369e+00 4.869455052800000000e+10
2.639999988074971604e+00 4.703824691200000000e+10
2.679999987894289948e+00 3.169721753600000000e+10
2.719999987713608292e+00 1.558224281600000000e+10
2.759999987532926635e+00 3.622131968000000000e+09
2.799999987352244979e+00 2.415981056000000000e+09
2.839999987171563323e+00 2.409555968000000000e+10
2.879999986990878558e+00 6.202841497600000000e+10
2.919999986810196901e+00 9.281346764800000000e+10
2.959999986629515245e+00 1.013040988160000000e+11
2.999999986448833589e+00 8.458398105600000000e+10
3.039999986268151932e+00 5.905694720000000000e+10
3.079999986087467168e+00 3.360060211200000000e+10
3.119999985906785511e+00 1.253798195200000000e+10
3.159999985726103855e+00 1.352801920000000000e+09
3.199999985545422199e+00 1.300183168000000000e+09
3.239999985364740542e+00 6.013507072000000000e+09
3.279999985184055777e+00 7.259140608000000000e+09
3.319999985003374121e+00 1.226870528000000000e+09
3.359999984822692465e+00 1.062498508800000000e+10
3.399999984642010808e+00 2.913804697600000000e+10
3.439999984461329596e+00 3.276250112000000000e+10
3.479999984280647940e+00 2.978917171200000000e+10
3.519999984099963175e+00 2.743093657600000000e+10
3.559999983919281519e+00 3.808209715200000000e+10
3.599999983738599862e+00 5.681895424000000000e+10
3.639999983557918206e+00 6.406339788800000000e+10
3.679999983377236550e+00 5.973908684800000000e+10
3.719999983196551785e+00 6.361426329600000000e+10
3.759999983015870129e+00 6.821859737600000000e+10
3.799999982835188472e+00 4.841624371200000000e+10
3.839999982654506816e+00 2.069410816000000000e+10
3.879999982473825160e+00 3.707542528000000000e+09
3.919999982293143503e+00 2.931354368000000000e+09
3.959999982112458738e+00 1.281521766400000000e+10
3.999999981931777082e+00 3.276377292800000000e+10
4.039999981751095426e+00 5.295887564800000000e+10
4.079999981570414214e+00 6.296508416000000000e+10
4.119999981389732113e+00 5.014960947200000000e+10
4.159999981209047348e+00 2.461445939200000000e+10
4.199999981028366136e+00 1.070027161600000000e+10
4.239999980847684036e+00 5.002499072000000000e+09
4.279999980667002824e+00 4.194140160000000000e+09
4.319999980486320723e+00 3.078077440000000000e+09
