# x = Time (fs); y = Power (W)
-1.171999994706011172e+01 1.668178304000000000e+09
-1.167999994724079293e+01 1.765441152000000000e+09
-1.163999994742147770e+01 1.916860288000000000e+09
-1.159999994760215891e+01 2.070612992000000000e+09
-1.155999994778284012e+01 2.251259904000000000e+09
-1.151999994796352311e+01 2.474292736000000000e+09
-1.147999994814420432e+01 2.666943744000000000e+09
-1.143999994832488731e+01 2.839414784000000000e+09
-1.139999994850557030e+01 2.956970496000000000e+09
-1.135999994868625151e+01 2.930118400000000000e+09
-1.131999994886693450e+01 2.702334976000000000e+09
-1.127999994904761571e+01 2.281547264000000000e+09
-1.123999994922829870e+01 1.693719680000000000e+09
-1.119999994940898169e+01 1.041687040000000000e+09
-1.115999994958966290e+01 5.185806720000000000e+08
-1.111999994977034589e+01 1.745220160000000000e+08
-1.107999994995102711e+01 1.708318400000000000e+07
-1.103999995013171009e+01 2.483056000000000000e+07
-1.099999995031239131e+01 1.360889760000000000e+08
-1.095999995049307429e+01 3.100763840000000000e+08
-1.091999995067375551e+01 4.979722880000000000e+08
-1.087999995085443850e+01 6.731312000000000000e+08
-1.083999995103512148e+01 8.467441280000000000e+08
-1.079999995121580270e+01 1.017886144000000000e+09
-1.075999995139648568e+01 1.183681408000000000e+09
-1.071999995157716690e+01 1.400756224000000000e+09
-1.067999995175784989e+01 1.686378240000000000e+09
-1.063999995193853110e+01 2.070650112000000000e+09
-1.059999995211921409e+01 2.631784192000000000e+09
-1.055999995229989707e+01 3.381346816000000000e+09
-1.051999995248057829e+01 4.322967040000000000e+09
-1.047999995266126128e+01 5.359079936000000000e+09
-1.043999995284194249e+01 6.090342400000000000e+09
-1.039999995302262548e+01 5.820283904000000000e+09
-1.035999995320330669e+01 4.558435840000000000e+09
-1.031999995338398968e+01 3.155623168000000000e+09
-1.027999995356467089e+01 1.977303040000000000e+09
-1.023999995374535388e+01 1.133052160000000000e+09
-1.019999995392603687e+01 6.102717440000000000e+08
-1.015999995410671808e+01 3.056858240000000000e+08
-1.011999995428740107e+01 1.398187680000000000e+08
-1.007999995446808228e+01 6.308721200000000000e+07
-1.003999995464876527e+01 2.588196200000000000e+07
-9.999999954829448257e+00 9.078289000000000000e+06
-9.959999955010129469e+00 7.340170000000000000e+06
-9.919999955190810681e+00 2.279746200000000000e+07
-9.879999955371493670e+00 6.195665600000000000e+07
-9.839999955552174882e+00 1.306943120000000000e+08
-9.799999955732859647e+00 2.362677440000000000e+08
-9.759999955913540859e+00 4.301560960000000000e+08
-9.719999956094222071e+00 7.560949120000000000e+08
-9.679999956274905060e+00 1.277158784000000000e+09
-9.639999956455586272e+00 1.983196800000000000e+09
-9.599999956636269260e+00 2.748286464000000000e+09
-9.559999956816952249e+00 3.464073984000000000e+09
-9.519999956997633461e+00 4.024068096000000000e+09
-9.479999957178316450e+00 4.423368192000000000e+09
-9.439999957358997662e+00 4.740799488000000000e+09
-9.399999957539680651e+00 5.060686336000000000e+09
-9.359999957720363639e+00 5.381359104000000000e+09
-9.319999957901044851e+00 6.098385920000000000e+09
-9.279999958081726064e+00 7.533511168000000000e+09
-9.239999958262409052e+00 9.855403008000000000e+09
-9.199999958443092041e+00 1.272796057600000000e+10
-9.159999958623775029e+00 1.536104755200000000e+10
-9.119999958804456242e+00 1.654328524800000000e+10
-9.079999958985137454e+00 1.546645708800000000e+10
-9.039999959165818666e+00 1.232356454400000000e+10
-8.999999959346501655e+00 8.104157184000000000e+09
-8.959999959527186419e+00 4.558835200000000000e+09
-8.919999959707867632e+00 2.133654400000000000e+09
-8.879999959888548844e+00 8.215795200000000000e+08
-8.839999960069230056e+00 3.517848000000000000e+08
-8.799999960249913045e+00 5.142321280000000000e+08
-8.759999960430597810e+00 1.134886528000000000e+09
-8.719999960611279022e+00 1.935350400000000000e+09
-8.679999960791960234e+00 2.580932864000000000e+09
-8.639999960972641446e+00 2.829321472000000000e+09
-8.599999961153324435e+00 2.687459072000000000e+09
-8.559999961334007423e+00 2.295465728000000000e+09
-8.519999961514690412e+00 1.863109120000000000e+09
-8.479999961695371624e+00 1.487895424000000000e+09
-8.439999961876052836e+00 1.162560128000000000e+09
-8.399999962056734049e+00 9.443985920000000000e+08
-8.359999962237418814e+00 8.584695040000000000e+08
-8.319999962418101802e+00 8.622733440000000000e+08
-8.279999962598783014e+00 9.258796800000000000e+08
-8.239999962779464227e+00 8.609528960000000000e+08
-8.199999962960145439e+00 5.678000000000000000e+08
-8.159999963140828427e+00 1.560108320000000000e+08
-8.119999963321513192e+00 1.191947920000000000e+08
-8.079999963502194404e+00 6.702293120000000000e+08
-8.039999963682875617e+00 2.406205696000000000e+09
-7.999999963863557717e+00 6.203502080000000000e+09
-7.959999964044240706e+00 1.130842112000000000e+10
-7.919999964224921918e+00 1.467050700800000000e+10
-7.879999964405605795e+00 1.503202918400000000e+10
-7.839999964586287007e+00 1.328984166400000000e+10
-7.799999964766968219e+00 1.106943078400000000e+10
-7.759999964947650319e+00 1.061027942400000000e+10
-7.719999965128333308e+00 1.235072409600000000e+10
-7.679999965309016297e+00 1.502131916800000000e+10
-7.639999965489698397e+00 1.611849113600000000e+10
-7.599999965670379609e+00 1.529461452800000000e+10
-7.559999965851061710e+00 1.333545881600000000e+10
-7.519999966031744698e+00 1.108344627200000000e+10
-7.479999966212426799e+00 9.327807488000000000e+09
-7.439999966393109787e+00 8.425027072000000000e+09
-7.399999966573790999e+00 8.551569408000000000e+09
-7.359999966754473100e+00 9.225716736000000000e+09
-7.319999966935154312e+00 9.917530112000000000e+09
-7.279999967115837300e+00 1.020573081600000000e+10
-7.239999967296521177e+00 1.025363148800000000e+10
-7.199999967477202389e+00 9.868651520000000000e+09
-7.159999967657884490e+00 8.776097792000000000e+09
-7.119999967838565702e+00 6.861393920000000000e+09
-7.079999968019248691e+00 4.670350848000000000e+09
-7.039999968199931679e+00 2.853455104000000000e+09
-6.999999968380612891e+00 1.567635968000000000e+09
-6.959999968561295880e+00 9.897544960000000000e+08
-6.919999968741977980e+00 9.698895360000000000e+08
-6.879999968922660081e+00 1.123930112000000000e+09
-6.839999969103342181e+00 1.003073472000000000e+09
-6.799999969284024282e+00 2.816711040000000000e+08
-6.759999969464706382e+00 3.211798080000000000e+08
-6.719999969645389370e+00 1.797175168000000000e+09
-6.679999969826070583e+00 3.861609472000000000e+09
-6.639999970006753571e+00 4.858047488000000000e+09
-6.599999970187435672e+00 4.852969472000000000e+09
-6.559999970368116884e+00 4.913847808000000000e+09
-6.519999970548799872e+00 6.137689088000000000e+09
-6.479999970729481973e+00 8.554332160000000000e+09
-6.439999970910164961e+00 1.185052364800000000e+10
-6.399999971090846174e+00 1.354654924800000000e+10
-6.359999971271528274e+00 1.195239628800000000e+10
-6.319999971452211263e+00 8.300790272000000000e+09
-6.279999971632893363e+00 4.466851328000000000e+09
-6.239999971813575463e+00 2.948823808000000000e+09
-6.199999971994257564e+00 5.042167296000000000e+09
-6.159999972174939664e+00 8.103726592000000000e+09
-6.119999972355622653e+00 9.837739008000000000e+09
-6.079999972536303865e+00 9.419522048000000000e+09
-6.039999972716985965e+00 7.282239488000000000e+09
-5.999999972897668954e+00 5.423758336000000000e+09
-5.959999973078351054e+00 4.695463936000000000e+09
-5.919999973259033155e+00 2.979385856000000000e+09
-5.879999973439715255e+00 2.782826752000000000e+09
-5.839999973620396467e+00 1.509008076800000000e+10
-5.799999973801080344e+00 4.403975372800000000e+10
-5.759999973981761556e+00 7.158521036800000000e+10
-5.719999974162444545e+00 7.881904947200000000e+10
-5.679999974343126645e+00 6.304116736000000000e+10
-5.639999974523807857e+00 3.899196211200000000e+10
-5.599999974704491734e+00 1.788382822400000000e+10
-5.559999974885172946e+00 7.994157056000000000e+09
-5.519999975065855047e+00 4.025266176000000000e+09
-5.479999975246538035e+00 3.867462912000000000e+09
-5.439999975427219248e+00 5.229195776000000000e+09
-5.399999975607903124e+00 8.645032960000000000e+09
-5.359999975788584337e+00 8.678701056000000000e+09
-5.319999975969265549e+00 4.571486720000000000e+09
-5.279999976149949426e+00 9.182637440000000000e+08
-5.239999976330630638e+00 1.032876160000000000e+09
-5.199999976511312738e+00 5.747321856000000000e+09
-5.159999976691995727e+00 1.245092454400000000e+10
-5.119999976872676939e+00 1.576813260800000000e+10
-5.079999977053359039e+00 1.497071923200000000e+10
-5.039999977234042028e+00 1.054201344000000000e+10
-4.999999977414724128e+00 9.872496640000000000e+09
-4.959999977595407117e+00 1.131200921600000000e+10
-4.919999977776088329e+00 8.897107968000000000e+09
-4.879999977956770429e+00 3.985100288000000000e+09
-4.839999978137453418e+00 2.149343232000000000e+09
-4.799999978318134630e+00 1.048176435200000000e+10
-4.759999978498816731e+00 2.491657011200000000e+10
-4.719999978679499719e+00 3.416250982400000000e+10
-4.679999978860181820e+00 3.421762355200000000e+10
-4.639999979040864808e+00 2.717949337600000000e+10
-4.599999979221546020e+00 2.456131174400000000e+10
-4.559999979402228121e+00 2.567341670400000000e+10
-4.519999979582911109e+00 2.423116595200000000e+10
-4.479999979763593210e+00 1.327632691200000000e+10
-4.439999979944274422e+00 6.363957760000000000e+09
-4.399999980124957411e+00 8.619056128000000000e+09
-4.359999980305639511e+00 1.351209062400000000e+10
-4.319999980486322499e+00 1.444335001600000000e+10
-4.279999980667003712e+00 1.210845593600000000e+10
-4.239999980847685812e+00 7.851280896000000000e+09
-4.199999981028368801e+00 4.951878656000000000e+09
-4.159999981209050901e+00 5.788711424000000000e+09
-4.119999981389732113e+00 8.369461760000000000e+09
-4.079999981570415102e+00 1.009234636800000000e+10
-4.039999981751097202e+00 9.960649728000000000e+09
-3.999999981931778859e+00 9.764571136000000000e+09
-3.959999982112461847e+00 7.334903808000000000e+09
-3.919999982293143503e+00 1.781584896000000000e+09
-3.879999982473826936e+00 4.621613120000000000e+08
-3.839999982654508148e+00 3.893794816000000000e+09
-3.799999982835189805e+00 6.353116672000000000e+09
-3.759999983015873237e+00 5.601935360000000000e+09
-3.719999983196554894e+00 8.094342656000000000e+09
-3.679999983377236550e+00 2.984383897600000000e+10
-3.639999983557919538e+00 5.772164710400000000e+10
-3.599999983738601195e+00 7.616899481600000000e+10
-3.559999983919284627e+00 8.306221875200000000e+10
-3.519999984099966284e+00 8.101537382400000000e+10
-3.479999984280647940e+00 7.378971033600000000e+10
-3.439999984461330929e+00 8.347600486400000000e+10
-3.399999984642012585e+00 8.407778099200000000e+10
-3.359999984822694241e+00 5.851655372800000000e+10
-3.319999985003377230e+00 2.952784076800000000e+10
-3.279999985184058886e+00 1.013339750400000000e+10
-3.239999985364742319e+00 1.034661440000000000e+09
-3.199999985545423975e+00 1.083008512000000000e+09
-3.159999985726105631e+00 2.051684992000000000e+09
-3.119999985906788620e+00 3.526772800000000000e+08
-3.079999986087470276e+00 2.474960384000000000e+09
-3.039999986268151932e+00 1.262837452800000000e+10
-2.999999986448835365e+00 2.493157990400000000e+10
-2.959999986629517021e+00 3.146842521600000000e+10
-2.919999986810200010e+00 2.933950668800000000e+10
-2.879999986990881666e+00 2.227364044800000000e+10
-2.839999987171563323e+00 1.185434009600000000e+10
-2.799999987352246311e+00 9.467769856000000000e+09
-2.759999987532927967e+00 1.654857011200000000e+10
-2.719999987713609624e+00 1.487420313600000000e+10
-2.679999987894293056e+00 3.332333056000000000e+09
-2.639999988074974713e+00 5.402732032000000000e+09
-2.599999988255656369e+00 2.227926220800000000e+10
-2.559999988436339358e+00 3.136007168000000000e+10
-2.519999988617021014e+00 3.978869964800000000e+10
-2.479999988797704447e+00 6.481411276800000000e+10
-2.439999988978386103e+00 7.206447513600000000e+10
-2.399999989159067315e+00 2.740512768000000000e+10
-2.359999989339750748e+00 1.491886694400000000e+10
-2.319999989520432404e+00 6.850099200000000000e+10
-2.279999989701114060e+00 8.430447820800000000e+10
-2.239999989881797049e+00 4.954190643200000000e+10
-2.199999990062478705e+00 3.660250726400000000e+10
-2.159999990243162138e+00 4.585002188800000000e+10
-2.119999990423843794e+00 5.873296179200000000e+10
-2.079999990604525451e+00 6.715034419200000000e+10
-2.039999990785208439e+00 5.607326515200000000e+10
-1.999999990965890095e+00 3.042273894400000000e+10
-1.959999991146571752e+00 1.354031104000000000e+10
-1.919999991327254962e+00 5.806076928000000000e+09
-1.879999991507936619e+00 6.808901632000000000e+09
-1.839999991688619829e+00 1.041448550400000000e+10
-1.799999991869301486e+00 1.780440268800000000e+10
-1.759999992049983142e+00 1.778392678400000000e+10
-1.719999992230666352e+00 9.820812288000000000e+09
-1.679999992411347787e+00 2.629755648000000000e+09
-1.639999992592029443e+00 8.833177600000000000e+09
-1.599999992772712654e+00 2.812170240000000000e+10
-1.559999992953394310e+00 5.363317145600000000e+10
-1.519999993134077521e+00 5.859172761600000000e+10
-1.479999993314759177e+00 5.281239859200000000e+10
-1.439999993495440833e+00 4.469397094400000000e+10
-1.399999993676124044e+00 2.924632064000000000e+10
-1.359999993856805700e+00 2.117174067200000000e+10
-1.319999994037487356e+00 1.655383244800000000e+10
-1.279999994218170567e+00 8.648254464000000000e+09
-1.239999994398852223e+00 2.320534528000000000e+09
-1.199999994579533658e+00 4.370816512000000000e+09
-1.159999994760216868e+00 1.297559859200000000e+10
-1.119999994940898524e+00 2.144301670400000000e+10
-1.079999995121581735e+00 3.497175040000000000e+10
-1.039999995302263391e+00 3.079321804800000000e+10
-9.999999954829450477e-01 1.051268505600000000e+10
-9.599999956636282583e-01 4.168137984000000000e+09
-9.199999958443099146e-01 1.210686566400000000e+10
-8.799999960249915709e-01 5.136810393600000000e+10
-8.399999962056747815e-01 1.085473669120000000e+11
-7.999999963863563268e-01 1.225168732160000000e+11
-7.599999965670395374e-01 9.167910502400000000e+10
-7.199999967477211937e-01 4.822802432000000000e+10
-6.799999969284028500e-01 2.718308966400000000e+10
-6.399999971090860607e-01 1.348787916800000000e+10
-5.999999972897677170e-01 4.990436864000000000e+09
-5.599999974704492622e-01 1.314612736000000000e+09
-5.199999976511324729e-01 4.982536000000000000e+07
-4.799999978318141292e-01 2.531013920000000000e+08
-4.399999980124973398e-01 1.408242048000000000e+09
-3.999999981931789961e-01 3.680132352000000000e+09
-3.599999983738605969e-01 3.459462656000000000e+09
-3.199999985545438075e-01 1.592215936000000000e+09
-2.799999987352254638e-01 4.322649088000000000e+09
-2.399999989159070646e-01 1.763851673600000000e+10
-1.999999990965902752e-01 3.025141145600000000e+10
-1.599999992772719037e-01 3.127118438400000000e+10
-1.199999994579535323e-01 2.953039667200000000e+10
-7.999999963863674290e-02 3.452429107200000000e+10
-3.999999981931837145e-02 4.752688332800000000e+10
-1.577721810442023611e-15 5.080235212800000000e+10
3.999999981931678938e-02 2.357159116800000000e+10
7.999999963863516084e-02 3.410030400000000000e+08
1.199999994579519502e-01 1.264816025600000000e+10
1.599999992772703217e-01 3.755063705600000000e+10
1.999999990965886931e-01 4.467762790400000000e+10
2.399999989159054825e-01 3.810160230400000000e+10
2.799999987352238540e-01 2.062663475200000000e+10
3.199999985545406433e-01 5.129338368000000000e+09
3.599999983738590426e-01 2.013646336000000000e+09
3.999999981931773863e-01 2.708497920000000000e+09
4.399999980124941756e-01 1.958537216000000000e+10
4.799999978318125748e-01 6.725547622400000000e+10
5.199999976511309185e-01 1.212813312000000000e+11
5.599999974704477079e-01 1.351925514240000000e+11
5.999999972897660516e-01 9.657054822400000000e+10
6.399999971090828410e-01 3.942508953600000000e+10
6.799999969284012957e-01 1.262664704000000000e+10
7.199999967477196394e-01 1.953753292800000000e+10
7.599999965670364288e-01 2.505312460800000000e+10
7.999999963863547725e-01 1.454707712000000000e+10
8.399999962056731162e-01 8.883595264000000000e+09
8.799999960249899056e-01 1.765539635200000000e+10
9.199999958443083603e-01 3.546479411200000000e+10
9.599999956636251497e-01 4.326556467200000000e+10
9.999999954829434934e-01 2.789496422400000000e+10
1.039999995302261837e+00 1.934052556800000000e+10
1.079999995121578626e+00 2.999421747200000000e+10
1.119999994940896970e+00 3.484943564800000000e+10
1.159999994760215314e+00 1.764944076800000000e+10
1.199999994579532103e+00 3.812760832000000000e+09
1.239999994398850447e+00 2.502452736000000000e+09
1.279999994218169013e+00 4.350171648000000000e+09
1.319999994037487356e+00 5.608664064000000000e+09
1.359999993856802591e+00 6.642560512000000000e+09
1.399999993676120935e+00 4.799048704000000000e+09
1.439999993495439279e+00 2.013657984000000000e+09
1.479999993314757623e+00 1.706873241600000000e+10
1.519999993134075966e+00 5.428741734400000000e+10
1.559999992953391201e+00 7.997258137600000000e+10
1.599999992772709545e+00 7.116469862400000000e+10
1.639999992592027889e+00 7.318427238400000000e+10
1.679999992411346232e+00 7.831416832000000000e+10
1.719999992230664798e+00 5.157500928000000000e+10
1.759999992049983142e+00 1.794425241600000000e+10
1.799999991869298377e+00 9.014805504000000000e+09
1.839999991688616721e+00 1.824000204800000000e+10
1.879999991507935064e+00 3.705093734400000000e+10
1.919999991327253408e+00 2.290452889600000000e+10
1.959999991146571752e+00 2.655081472000000000e+10
1.999999990965886987e+00 9.196991283200000000e+10
2.039999990785205330e+00 1.352326103040000000e+11
2.079999990604523674e+00 1.002472734720000000e+11
2.119999990423842018e+00 6.215278592000000000e+10
2.159999990243160362e+00 3.233120256000000000e+10
2.199999990062475597e+00 2.350692761600000000e+10
2.239999989881793940e+00 3.172768768000000000e+10
2.279999989701112284e+00 3.309870694400000000e+10
2.319999989520430628e+00 2.511353036800000000e+10
2.359999989339748971e+00 9.247779840000000000e+09
2.399999989159067315e+00 5.854577152000000000e+09
2.439999988978382550e+00 1.416390860800000000e+10
2.479999988797700894e+00 1.189108838400000000e+10
2.519999988617019682e+00 1.086616883200000000e+10
2.559999988436338025e+00 1.585069670400000000e+10
2.599999988255656369e+00 2.248617779200000000e+10
2.639999988074971604e+00 2.070825779200000000e+10
2.679999987894289948e+00 2.738168627200000000e+10
2.719999987713608292e+00 4.333157580800000000e+10
2.759999987532926635e+00 5.603082240000000000e+10
2.799999987352244979e+00 5.743432908800000000e+10
2.839999987171563323e+00 6.638156185600000000e+10
2.879999986990878558e+00 7.256893030400000000e+10
2.919999986810196901e+00 6.940992307200000000e+10
2.959999986629515245e+00 4.743757004800000000e+10
2.999999986448833589e+00 1.998929715200000000e+10
3.039999986268151932e+00 2.541320601600000000e+10
3.079999986087467168e+00 5.019615232000000000e+10
3.119999985906785511e+00 7.202072166400000000e+10
3.159999985726103855e+00 8.460981862400000000e+10
3.199999985545422199e+00 8.322331443200000000e+10
3.239999985364740542e+00 5.910761472000000000e+10
3.279999985184055777e+00 2.463371059200000000e+10
3.319999985003374121e+00 2.346753536000000000e+09
3.359999984822692465e+00 6.763092480000000000e+08
3.399999984642010808e+00 4.398514176000000000e+09
3.439999984461329596e+00 8.362948096000000000e+09
3.479999984280647940e+00 1.010217779200000000e+10
3.519999984099963175e+00 1.096615424000000000e+10
3.559999983919281519e+00 6.364836352000000000e+09
3.599999983738599862e+00 5.473223168000000000e+09
3.639999983557918206e+00 1.714648576000000000e+10
3.679999983377236550e+00 3.390378393600000000e+10
3.719999983196551785e+00 3.840380928000000000e+10
3.759999983015870129e+00 3.885920256000000000e+10
3.799999982835188472e+00 2.280101068800000000e+10
3.839999982654506816e+00 6.273443840000000000e+09
3.879999982473825160e+00 4.786796480000000000e+08
3.919999982293143503e+00 2.981136384000000000e+09
3.959999982112458738e+00 2.176497664000000000e+10
