# x = Time (fs); y = Power (W)
-1.079999995121580270e+01 3.227141120000000000e+09
-1.075999995139648568e+01 4.479304192000000000e+09
-1.071999995157716690e+01 5.594893824000000000e+09
-1.067999995175784989e+01 6.087878144000000000e+09
-1.063999995193853110e+01 5.777167360000000000e+09
-1.059999995211921409e+01 4.908055040000000000e+09
-1.055999995229989707e+01 3.878033664000000000e+09
-1.051999995248057829e+01 2.906602752000000000e+09
-1.047999995266126128e+01 2.119209472000000000e+09
-1.043999995284194249e+01 1.567201280000000000e+09
-1.039999995302262548e+01 1.217062912000000000e+09
-1.035999995320330669e+01 1.059429632000000000e+09
-1.031999995338398968e+01 1.189489152000000000e+09
-1.027999995356467089e+01 1.705518080000000000e+09
-1.023999995374535388e+01 2.769635840000000000e+09
-1.019999995392603687e+01 4.460407808000000000e+09
-1.015999995410671808e+01 6.374993920000000000e+09
-1.011999995428740107e+01 7.805398016000000000e+09
-1.007999995446808228e+01 8.441603584000000000e+09
-1.003999995464876527e+01 8.352202240000000000e+09
-9.999999954829448257e+00 7.785800704000000000e+09
-9.959999955010129469e+00 7.059800064000000000e+09
-9.919999955190810681e+00 6.149182464000000000e+09
-9.879999955371493670e+00 5.222361088000000000e+09
-9.839999955552174882e+00 4.419446272000000000e+09
-9.799999955732859647e+00 3.783538176000000000e+09
-9.759999955913540859e+00 3.181363712000000000e+09
-9.719999956094222071e+00 2.554002176000000000e+09
-9.679999956274905060e+00 1.907009024000000000e+09
-9.639999956455586272e+00 1.363949824000000000e+09
-9.599999956636269260e+00 1.034353216000000000e+09
-9.559999956816952249e+00 9.572259200000000000e+08
-9.519999956997633461e+00 1.080542976000000000e+09
-9.479999957178316450e+00 1.237903616000000000e+09
-9.439999957358997662e+00 1.371622400000000000e+09
-9.399999957539680651e+00 1.281219456000000000e+09
-9.359999957720363639e+00 1.062597440000000000e+09
-9.319999957901044851e+00 1.447734272000000000e+09
-9.279999958081726064e+00 2.973741824000000000e+09
-9.239999958262409052e+00 5.200675328000000000e+09
-9.199999958443092041e+00 7.036747264000000000e+09
-9.159999958623775029e+00 7.585693696000000000e+09
-9.119999958804456242e+00 6.725897216000000000e+09
-9.079999958985137454e+00 5.261463552000000000e+09
-9.039999959165818666e+00 4.115133696000000000e+09
-8.999999959346501655e+00 3.491189504000000000e+09
-8.959999959527186419e+00 3.502617344000000000e+09
-8.919999959707867632e+00 3.979146240000000000e+09
-8.879999959888548844e+00 4.699323904000000000e+09
-8.839999960069230056e+00 5.641880576000000000e+09
-8.799999960249913045e+00 6.492471296000000000e+09
-8.759999960430597810e+00 7.369890816000000000e+09
-8.719999960611279022e+00 8.544792064000000000e+09
-8.679999960791960234e+00 1.029522841600000000e+10
-8.639999960972641446e+00 1.278356582400000000e+10
-8.599999961153324435e+00 1.489776537600000000e+10
-8.559999961334007423e+00 1.526681907200000000e+10
-8.519999961514690412e+00 1.353131008000000000e+10
-8.479999961695371624e+00 1.041222246400000000e+10
-8.439999961876052836e+00 7.632681984000000000e+09
-8.399999962056734049e+00 5.202545664000000000e+09
-8.359999962237418814e+00 3.401670656000000000e+09
-8.319999962418101802e+00 2.341812736000000000e+09
-8.279999962598783014e+00 1.820482560000000000e+09
-8.239999962779464227e+00 1.892982400000000000e+09
-8.199999962960145439e+00 2.603828224000000000e+09
-8.159999963140828427e+00 4.018152448000000000e+09
-8.119999963321513192e+00 5.418439168000000000e+09
-8.079999963502194404e+00 4.841199104000000000e+09
-8.039999963682875617e+00 4.131464960000000000e+09
-7.999999963863557717e+00 8.238877696000000000e+09
-7.959999964044240706e+00 1.965555916800000000e+10
-7.919999964224921918e+00 3.312884326400000000e+10
-7.879999964405605795e+00 3.722364928000000000e+10
-7.839999964586287007e+00 2.911586304000000000e+10
-7.799999964766968219e+00 1.691910451200000000e+10
-7.759999964947650319e+00 7.118394880000000000e+09
-7.719999965128333308e+00 1.315910144000000000e+09
-7.679999965309016297e+00 1.669706080000000000e+08
-7.639999965489698397e+00 2.304564736000000000e+09
-7.599999965670379609e+00 6.441989632000000000e+09
-7.559999965851061710e+00 1.048881254400000000e+10
-7.519999966031744698e+00 1.262230732800000000e+10
-7.479999966212426799e+00 1.181125529600000000e+10
-7.439999966393109787e+00 8.085386752000000000e+09
-7.399999966573790999e+00 4.762907136000000000e+09
-7.359999966754473100e+00 2.086445568000000000e+09
-7.319999966935154312e+00 8.226261120000000000e+08
-7.279999967115837300e+00 4.126099520000000000e+08
-7.239999967296521177e+00 3.973352960000000000e+08
-7.199999967477202389e+00 8.128858880000000000e+08
-7.159999967657884490e+00 1.550885760000000000e+09
-7.119999967838565702e+00 2.124429184000000000e+09
-7.079999968019248691e+00 2.610136064000000000e+09
-7.039999968199931679e+00 2.802623232000000000e+09
-6.999999968380612891e+00 3.050334208000000000e+09
-6.959999968561295880e+00 3.019633664000000000e+09
-6.919999968741977980e+00 2.494409216000000000e+09
-6.879999968922660081e+00 1.496547584000000000e+09
-6.839999969103342181e+00 6.818203520000000000e+08
-6.799999969284024282e+00 1.525842176000000000e+09
-6.759999969464706382e+00 4.936576000000000000e+09
-6.719999969645389370e+00 8.225638400000000000e+09
-6.679999969826070583e+00 9.892261888000000000e+09
-6.639999970006753571e+00 8.683639808000000000e+09
-6.599999970187435672e+00 6.918042624000000000e+09
-6.559999970368116884e+00 5.124683264000000000e+09
-6.519999970548799872e+00 4.327815168000000000e+09
-6.479999970729481973e+00 5.678965248000000000e+09
-6.439999970910164961e+00 7.459105792000000000e+09
-6.399999971090846174e+00 8.902827008000000000e+09
-6.359999971271528274e+00 9.040598016000000000e+09
-6.319999971452211263e+00 6.375158272000000000e+09
-6.279999971632893363e+00 1.176903168000000000e+10
-6.239999971813575463e+00 3.433100697600000000e+10
-6.199999971994257564e+00 6.529714176000000000e+10
-6.159999972174939664e+00 8.437633843200000000e+10
-6.119999972355622653e+00 7.186717081600000000e+10
-6.079999972536303865e+00 4.692016332800000000e+10
-6.039999972716985965e+00 2.171806720000000000e+10
-5.999999972897668954e+00 5.230900224000000000e+09
-5.959999973078351054e+00 3.972766080000000000e+08
-5.919999973259033155e+00 4.215220992000000000e+09
-5.879999973439715255e+00 1.036681932800000000e+10
-5.839999973620396467e+00 1.325480960000000000e+10
-5.799999973801080344e+00 1.121942220800000000e+10
-5.759999973981761556e+00 7.600550400000000000e+09
-5.719999974162444545e+00 4.928969216000000000e+09
-5.679999974343126645e+00 4.369245184000000000e+09
-5.639999974523807857e+00 4.994985984000000000e+09
-5.599999974704491734e+00 6.353044992000000000e+09
-5.559999974885172946e+00 7.204642304000000000e+09
-5.519999975065855047e+00 7.173689344000000000e+09
-5.479999975246538035e+00 5.408929792000000000e+09
-5.439999975427219248e+00 2.940347136000000000e+09
-5.399999975607903124e+00 1.037464000000000000e+09
-5.359999975788584337e+00 1.232428416000000000e+09
-5.319999975969265549e+00 3.842631680000000000e+09
-5.279999976149949426e+00 7.784802304000000000e+09
-5.239999976330630638e+00 1.043684659200000000e+10
-5.199999976511312738e+00 9.095654400000000000e+09
-5.159999976691995727e+00 6.914340864000000000e+09
-5.119999976872676939e+00 4.803142144000000000e+09
-5.079999977053359039e+00 2.602974208000000000e+09
-5.039999977234042028e+00 7.544100480000000000e+08
-4.999999977414724128e+00 1.829541504000000000e+09
-4.959999977595407117e+00 8.406459904000000000e+09
-4.919999977776088329e+00 2.022703923200000000e+10
-4.879999977956770429e+00 3.062645964800000000e+10
-4.839999978137453418e+00 3.431648051200000000e+10
-4.799999978318134630e+00 3.361015808000000000e+10
-4.759999978498816731e+00 3.101066444800000000e+10
-4.719999978679499719e+00 2.476544000000000000e+10
-4.679999978860181820e+00 1.775787008000000000e+10
-4.639999979040864808e+00 8.620606464000000000e+09
-4.599999979221546020e+00 2.372784640000000000e+09
-4.559999979402228121e+00 1.555117568000000000e+09
-4.519999979582911109e+00 5.437335040000000000e+09
-4.479999979763593210e+00 1.008188825600000000e+10
-4.439999979944274422e+00 1.044132761600000000e+10
-4.399999980124957411e+00 9.912819712000000000e+09
-4.359999980305639511e+00 1.418671820800000000e+10
-4.319999980486322499e+00 1.858458009600000000e+10
-4.279999980667003712e+00 1.973991833600000000e+10
-4.239999980847685812e+00 2.469257011200000000e+10
-4.199999981028368801e+00 3.571398656000000000e+10
-4.159999981209050901e+00 3.691945574400000000e+10
-4.119999981389732113e+00 2.730230784000000000e+10
-4.079999981570415102e+00 1.444725452800000000e+10
-4.039999981751097202e+00 6.969080320000000000e+09
-3.999999981931778859e+00 4.995906048000000000e+09
-3.959999982112461847e+00 6.747058688000000000e+09
-3.919999982293143503e+00 3.832029184000000000e+09
-3.879999982473826936e+00 9.946591232000000000e+09
-3.839999982654508148e+00 3.710781849600000000e+10
-3.799999982835189805e+00 7.146681139200000000e+10
-3.759999983015873237e+00 9.343698534400000000e+10
-3.719999983196554894e+00 7.454808473600000000e+10
-3.679999983377236550e+00 4.155228979200000000e+10
-3.639999983557919538e+00 1.566738534400000000e+10
-3.599999983738601195e+00 2.386015744000000000e+09
-3.559999983919284627e+00 4.212292800000000000e+08
-3.519999984099966284e+00 4.503552512000000000e+09
-3.479999984280647940e+00 4.083135232000000000e+09
-3.439999984461330929e+00 5.631040640000000000e+08
-3.399999984642012585e+00 4.689820672000000000e+09
-3.359999984822694241e+00 1.987490406400000000e+10
-3.319999985003377230e+00 3.054684774400000000e+10
-3.279999985184058886e+00 3.098545356800000000e+10
-3.239999985364742319e+00 2.201382502400000000e+10
-3.199999985545423975e+00 1.213913702400000000e+10
-3.159999985726105631e+00 5.241829888000000000e+09
-3.119999985906788620e+00 7.657967616000000000e+09
-3.079999986087470276e+00 2.614700032000000000e+10
-3.039999986268151932e+00 4.488278016000000000e+10
-2.999999986448835365e+00 4.888624332800000000e+10
-2.959999986629517021e+00 4.117542502400000000e+10
-2.919999986810200010e+00 3.493983027200000000e+10
-2.879999986990881666e+00 2.786203238400000000e+10
-2.839999987171563323e+00 2.101334425600000000e+10
-2.799999987352246311e+00 1.147498496000000000e+10
-2.759999987532927967e+00 5.367955456000000000e+09
-2.719999987713609624e+00 2.170025984000000000e+09
-2.679999987894293056e+00 2.626070016000000000e+09
-2.639999988074974713e+00 6.806596096000000000e+09
-2.599999988255656369e+00 1.088963788800000000e+10
-2.559999988436339358e+00 1.798670540800000000e+10
-2.519999988617021014e+00 3.360858316800000000e+10
-2.479999988797704447e+00 3.247943065600000000e+10
-2.439999988978386103e+00 1.053004185600000000e+10
-2.399999989159067315e+00 4.416437248000000000e+09
-2.359999989339750748e+00 3.065545932800000000e+10
-2.319999989520432404e+00 4.585011200000000000e+10
-2.279999989701114060e+00 4.555153408000000000e+10
-2.239999989881797049e+00 5.716702412800000000e+10
-2.199999990062478705e+00 9.440389529600000000e+10
-2.159999990243162138e+00 1.340273786880000000e+11
-2.119999990423843794e+00 1.272839208960000000e+11
-2.079999990604525451e+00 8.400148070400000000e+10
-2.039999990785208439e+00 4.130269184000000000e+10
-1.999999990965890095e+00 3.321211494400000000e+10
-1.959999991146571752e+00 3.419303321600000000e+10
-1.919999991327254962e+00 1.806659788800000000e+10
-1.879999991507936619e+00 7.783187968000000000e+09
-1.839999991688619829e+00 1.617317376000000000e+10
-1.799999991869301486e+00 1.754160128000000000e+10
-1.759999992049983142e+00 9.052030976000000000e+09
-1.719999992230666352e+00 7.230367232000000000e+09
-1.679999992411347787e+00 5.260080128000000000e+09
-1.639999992592029443e+00 8.524552192000000000e+09
-1.599999992772712654e+00 2.404886323200000000e+10
-1.559999992953394310e+00 4.312645632000000000e+10
-1.519999993134077521e+00 6.282091315200000000e+10
-1.479999993314759177e+00 6.359165747200000000e+10
-1.439999993495440833e+00 5.766521241600000000e+10
-1.399999993676124044e+00 3.996194406400000000e+10
-1.359999993856805700e+00 2.915391488000000000e+10
-1.319999994037487356e+00 1.590105907200000000e+10
-1.279999994218170567e+00 6.545808384000000000e+09
-1.239999994398852223e+00 1.975707392000000000e+09
-1.199999994579533658e+00 5.627720960000000000e+08
-1.159999994760216868e+00 3.772564224000000000e+09
-1.119999994940898524e+00 1.541706137600000000e+10
-1.079999995121581735e+00 2.847730688000000000e+10
-1.039999995302263391e+00 2.987949056000000000e+10
-9.999999954829450477e-01 2.863600230400000000e+10
-9.599999956636282583e-01 1.511805952000000000e+10
-9.199999958443099146e-01 4.667437056000000000e+09
-8.799999960249915709e-01 1.562616422400000000e+10
-8.399999962056747815e-01 4.368325427200000000e+10
-7.999999963863563268e-01 5.581069926400000000e+10
-7.599999965670395374e-01 3.999293440000000000e+10
-7.199999967477211937e-01 2.256134348800000000e+10
-6.799999969284028500e-01 8.544248832000000000e+09
-6.399999971090860607e-01 4.471533568000000000e+09
-5.999999972897677170e-01 4.458326016000000000e+09
-5.599999974704492622e-01 3.218042368000000000e+09
-5.199999976511324729e-01 2.218079641600000000e+10
-4.799999978318141292e-01 6.940884172800000000e+10
-4.399999980124973398e-01 9.131751014400000000e+10
-3.999999981931789961e-01 6.227783270400000000e+10
-3.599999983738605969e-01 2.929127424000000000e+10
-3.199999985545438075e-01 1.013458227200000000e+10
-2.799999987352254638e-01 1.631664640000000000e+10
-2.399999989159070646e-01 3.750784614400000000e+10
-1.999999990965902752e-01 5.122630860800000000e+10
-1.599999992772719037e-01 4.881591091200000000e+10
-1.199999994579535323e-01 3.935263948800000000e+10
-7.999999963863674290e-02 2.450259353600000000e+10
-3.999999981931837145e-02 8.418532352000000000e+09
-1.577721810442023611e-15 4.151337216000000000e+09
3.999999981931678938e-02 6.142260224000000000e+09
7.999999963863516084e-02 8.154983424000000000e+09
1.199999994579519502e-01 4.189754112000000000e+09
1.599999992772703217e-01 7.295856640000000000e+08
1.999999990965886931e-01 1.371257088000000000e+09
2.399999989159054825e-01 8.871882240000000000e+08
2.799999987352238540e-01 2.655917312000000000e+09
3.199999985545406433e-01 8.992496640000000000e+09
3.599999983738590426e-01 1.653231308800000000e+10
3.999999981931773863e-01 2.767765094400000000e+10
4.399999980124941756e-01 4.386587033600000000e+10
4.799999978318125748e-01 5.261428736000000000e+10
5.199999976511309185e-01 5.812775731200000000e+10
5.599999974704477079e-01 5.843770163200000000e+10
5.999999972897660516e-01 5.995771494400000000e+10
6.399999971090828410e-01 5.152933068800000000e+10
6.799999969284012957e-01 3.310598144000000000e+10
7.199999967477196394e-01 2.300792422400000000e+10
7.599999965670364288e-01 1.236312166400000000e+10
7.999999963863547725e-01 1.027581849600000000e+10
8.399999962056731162e-01 6.728928256000000000e+09
8.799999960249899056e-01 4.582693760000000000e+08
9.199999958443083603e-01 6.748157952000000000e+09
9.599999956636251497e-01 1.459044556800000000e+10
9.999999954829434934e-01 1.265995673600000000e+10
1.039999995302261837e+00 2.801229619200000000e+10
1.079999995121578626e+00 6.832635084800000000e+10
1.119999994940896970e+00 9.176833228800000000e+10
1.159999994760215314e+00 9.130051174400000000e+10
1.199999994579532103e+00 1.122662809600000000e+11
1.239999994398850447e+00 8.828399616000000000e+10
1.279999994218169013e+00 3.458902016000000000e+10
1.319999994037487356e+00 3.387298816000000000e+09
1.359999993856802591e+00 1.208582963200000000e+10
1.399999993676120935e+00 1.844956364800000000e+10
1.439999993495439279e+00 2.000615014400000000e+10
1.479999993314757623e+00 2.434174156800000000e+10
1.519999993134075966e+00 1.867442790400000000e+10
1.559999992953391201e+00 1.238695526400000000e+10
1.599999992772709545e+00 1.579520819200000000e+10
1.639999992592027889e+00 2.990324121600000000e+10
1.679999992411346232e+00 4.401567334400000000e+10
1.719999992230664798e+00 4.314470400000000000e+10
1.759999992049983142e+00 2.266803404800000000e+10
1.799999991869298377e+00 1.404324761600000000e+10
1.839999991688616721e+00 2.658529075200000000e+10
1.879999991507935064e+00 4.174927462400000000e+10
1.919999991327253408e+00 4.746593484800000000e+10
1.959999991146571752e+00 4.588993331200000000e+10
1.999999990965886987e+00 3.991075635200000000e+10
2.039999990785205330e+00 3.492711219200000000e+10
2.079999990604523674e+00 3.003746508800000000e+10
2.119999990423842018e+00 2.045980262400000000e+10
2.159999990243160362e+00 1.778464358400000000e+10
2.199999990062475597e+00 2.352843776000000000e+10
2.239999989881793940e+00 4.262637977600000000e+10
2.279999989701112284e+00 5.588895744000000000e+10
2.319999989520430628e+00 3.865645465600000000e+10
2.359999989339748971e+00 2.536064819200000000e+10
2.399999989159067315e+00 1.413813657600000000e+10
2.439999988978382550e+00 5.824285184000000000e+09
2.479999988797700894e+00 2.996954726400000000e+10
2.519999988617019682e+00 8.178658508800000000e+10
2.559999988436338025e+00 9.353645260800000000e+10
2.599999988255656369e+00 6.615083827200000000e+10
2.639999988074971604e+00 3.728360652800000000e+10
2.679999987894289948e+00 2.278741811200000000e+10
2.719999987713608292e+00 2.678362112000000000e+10
2.759999987532926635e+00 2.017171251200000000e+10
2.799999987352244979e+00 3.410191872000000000e+09
2.839999987171563323e+00 3.444517888000000000e+09
2.879999986990878558e+00 1.545343897600000000e+10
2.919999986810196901e+00 2.881661952000000000e+10
2.959999986629515245e+00 4.234335436800000000e+10
2.999999986448833589e+00 4.961637990400000000e+10
3.039999986268151932e+00 7.243528601600000000e+10
3.079999986087467168e+00 9.834647552000000000e+10
3.119999985906785511e+00 8.471341465600000000e+10
3.159999985726103855e+00 7.780835328000000000e+10
3.199999985545422199e+00 7.441453875200000000e+10
3.239999985364740542e+00 5.705481011200000000e+10
3.279999985184055777e+00 1.938265497600000000e+10
3.319999985003374121e+00 5.428412800000000000e+08
3.359999984822692465e+00 2.181491916800000000e+10
3.399999984642010808e+00 5.263032729600000000e+10
3.439999984461329596e+00 6.799143321600000000e+10
3.479999984280647940e+00 5.761679769600000000e+10
3.519999984099963175e+00 3.097197977600000000e+10
3.559999983919281519e+00 1.399912140800000000e+10
3.599999983738599862e+00 4.878991872000000000e+09
3.639999983557918206e+00 2.511570432000000000e+09
3.679999983377236550e+00 4.499614720000000000e+09
3.719999983196551785e+00 1.014082457600000000e+10
3.759999983015870129e+00 1.292769894400000000e+10
3.799999982835188472e+00 5.771723264000000000e+09
3.839999982654506816e+00 6.228716032000000000e+09
3.879999982473825160e+00 2.340770816000000000e+10
3.919999982293143503e+00 3.036138905600000000e+10
3.959999982112458738e+00 3.726514995200000000e+10
3.999999981931777082e+00 4.686023065600000000e+10
4.039999981751095426e+00 5.237818982400000000e+10
4.079999981570414214e+00 7.311210086400000000e+10
4.119999981389732113e+00 8.953194905600000000e+10
4.159999981209047348e+00 7.377391616000000000e+10
4.199999981028366136e+00 4.895846400000000000e+10
4.239999980847684036e+00 2.558336409600000000e+10
4.279999980667002824e+00 9.471479808000000000e+09
4.319999980486320723e+00 2.168536064000000000e+09
4.359999980305635958e+00 4.381502400000000000e+08
4.399999980124954746e+00 5.411696400000000000e+07
4.439999979944272646e+00 1.538931072000000000e+09
4.479999979763591433e+00 6.352195584000000000e+09
4.519999979582909333e+00 6.877560320000000000e+09
4.559999979402228121e+00 2.923372800000000000e+09
4.599999979221543356e+00 8.227870720000000000e+08
4.639999979040861255e+00 9.350573056000000000e+09
4.679999978860180043e+00 1.343991193600000000e+10
4.719999978679497943e+00 6.282323456000000000e+09
4.759999978498816731e+00 1.909756928000000000e+10
4.799999978318131966e+00 4.359939276800000000e+10
4.839999978137449865e+00 4.119472128000000000e+10
4.879999977956768653e+00 7.851024384000000000e+10
