# x = Time (fs); y = Power (W)
-1.147999994814420432e+01 1.737042688000000000e+09
-1.143999994832488731e+01 1.764685056000000000e+09
-1.139999994850557030e+01 1.693197696000000000e+09
-1.135999994868625151e+01 1.523989120000000000e+09
-1.131999994886693450e+01 1.349682944000000000e+09
-1.127999994904761571e+01 1.195794816000000000e+09
-1.123999994922829870e+01 1.056835136000000000e+09
-1.119999994940898169e+01 9.754258560000000000e+08
-1.115999994958966290e+01 9.451099520000000000e+08
-1.111999994977034589e+01 9.377388800000000000e+08
-1.107999994995102711e+01 9.814474240000000000e+08
-1.103999995013171009e+01 1.071233152000000000e+09
-1.099999995031239131e+01 1.196001408000000000e+09
-1.095999995049307429e+01 1.401223168000000000e+09
-1.091999995067375551e+01 1.693914112000000000e+09
-1.087999995085443850e+01 2.079233152000000000e+09
-1.083999995103512148e+01 2.626269184000000000e+09
-1.079999995121580270e+01 3.406369536000000000e+09
-1.075999995139648568e+01 4.454782464000000000e+09
-1.071999995157716690e+01 5.897009152000000000e+09
-1.067999995175784989e+01 7.712602112000000000e+09
-1.063999995193853110e+01 9.720494080000000000e+09
-1.059999995211921409e+01 1.135495884800000000e+10
-1.055999995229989707e+01 1.159739801600000000e+10
-1.051999995248057829e+01 9.797351424000000000e+09
-1.047999995266126128e+01 6.529394176000000000e+09
-1.043999995284194249e+01 3.377447168000000000e+09
-1.039999995302262548e+01 1.346314624000000000e+09
-1.035999995320330669e+01 3.751496320000000000e+08
-1.031999995338398968e+01 4.659035600000000000e+07
-1.027999995356467089e+01 1.942798400000000000e+07
-1.023999995374535388e+01 8.592715200000000000e+07
-1.019999995392603687e+01 1.547549760000000000e+08
-1.015999995410671808e+01 1.774799040000000000e+08
-1.011999995428740107e+01 1.545419840000000000e+08
-1.007999995446808228e+01 1.013481760000000000e+08
-1.003999995464876527e+01 7.993471200000000000e+07
-9.999999954829448257e+00 2.650555840000000000e+08
-9.959999955010129469e+00 9.517330560000000000e+08
-9.919999955190810681e+00 2.413321472000000000e+09
-9.879999955371493670e+00 4.307692544000000000e+09
-9.839999955552174882e+00 5.736996864000000000e+09
-9.799999955732859647e+00 6.206628352000000000e+09
-9.759999955913540859e+00 5.839069696000000000e+09
-9.719999956094222071e+00 4.965747712000000000e+09
-9.679999956274905060e+00 4.048544000000000000e+09
-9.639999956455586272e+00 3.277610240000000000e+09
-9.599999956636269260e+00 2.619071744000000000e+09
-9.559999956816952249e+00 2.127216512000000000e+09
-9.519999956997633461e+00 1.781231104000000000e+09
-9.479999957178316450e+00 1.485907072000000000e+09
-9.439999957358997662e+00 1.308958592000000000e+09
-9.399999957539680651e+00 1.200588544000000000e+09
-9.359999957720363639e+00 1.160235136000000000e+09
-9.319999957901044851e+00 1.248167680000000000e+09
-9.279999958081726064e+00 1.618912640000000000e+09
-9.239999958262409052e+00 2.700665600000000000e+09
-9.199999958443092041e+00 5.091490816000000000e+09
-9.159999958623775029e+00 9.087989760000000000e+09
-9.119999958804456242e+00 1.392108646400000000e+10
-9.079999958985137454e+00 1.788714598400000000e+10
-9.039999959165818666e+00 1.954415206400000000e+10
-8.999999959346501655e+00 1.843734118400000000e+10
-8.959999959527186419e+00 1.511617945600000000e+10
-8.919999959707867632e+00 1.041558016000000000e+10
-8.879999959888548844e+00 6.014621696000000000e+09
-8.839999960069230056e+00 2.798166528000000000e+09
-8.799999960249913045e+00 9.838077440000000000e+08
-8.759999960430597810e+00 3.149287360000000000e+08
-8.719999960611279022e+00 3.461415680000000000e+08
-8.679999960791960234e+00 7.311744640000000000e+08
-8.639999960972641446e+00 1.175020416000000000e+09
-8.599999961153324435e+00 1.571767424000000000e+09
-8.559999961334007423e+00 1.793674368000000000e+09
-8.519999961514690412e+00 1.851980928000000000e+09
-8.479999961695371624e+00 1.792827776000000000e+09
-8.439999961876052836e+00 1.601020032000000000e+09
-8.399999962056734049e+00 1.409369344000000000e+09
-8.359999962237418814e+00 1.256555008000000000e+09
-8.319999962418101802e+00 1.104090240000000000e+09
-8.279999962598783014e+00 9.728032640000000000e+08
-8.239999962779464227e+00 8.765969280000000000e+08
-8.199999962960145439e+00 7.959318400000000000e+08
-8.159999963140828427e+00 6.842513920000000000e+08
-8.119999963321513192e+00 5.300200640000000000e+08
-8.079999963502194404e+00 5.162475200000000000e+08
-8.039999963682875617e+00 8.443520640000000000e+08
-7.999999963863557717e+00 1.568805760000000000e+09
-7.959999964044240706e+00 2.751292672000000000e+09
-7.919999964224921918e+00 4.462497792000000000e+09
-7.879999964405605795e+00 6.621496832000000000e+09
-7.839999964586287007e+00 9.107697664000000000e+09
-7.799999964766968219e+00 1.143716864000000000e+10
-7.759999964947650319e+00 1.268000256000000000e+10
-7.719999965128333308e+00 1.212855603200000000e+10
-7.679999965309016297e+00 9.602166784000000000e+09
-7.639999965489698397e+00 6.335315456000000000e+09
-7.599999965670379609e+00 3.644978176000000000e+09
-7.559999965851061710e+00 1.986966656000000000e+09
-7.519999966031744698e+00 1.205315968000000000e+09
-7.479999966212426799e+00 1.013194304000000000e+09
-7.439999966393109787e+00 9.094248960000000000e+08
-7.399999966573790999e+00 5.012935360000000000e+08
-7.359999966754473100e+00 1.576453120000000000e+08
-7.319999966935154312e+00 2.711133760000000000e+08
-7.279999967115837300e+00 1.154184064000000000e+09
-7.239999967296521177e+00 2.547218176000000000e+09
-7.199999967477202389e+00 3.288458240000000000e+09
-7.159999967657884490e+00 6.959651840000000000e+09
-7.119999967838565702e+00 1.814160793600000000e+10
-7.079999968019248691e+00 3.444036812800000000e+10
-7.039999968199931679e+00 4.977326080000000000e+10
-6.999999968380612891e+00 5.543373209600000000e+10
-6.959999968561295880e+00 4.627486310400000000e+10
-6.919999968741977980e+00 2.997954150400000000e+10
-6.879999968922660081e+00 1.596847104000000000e+10
-6.839999969103342181e+00 7.301731328000000000e+09
-6.799999969284024282e+00 3.435937024000000000e+09
-6.759999969464706382e+00 2.366797824000000000e+09
-6.719999969645389370e+00 2.766215168000000000e+09
-6.679999969826070583e+00 3.493861632000000000e+09
-6.639999970006753571e+00 4.493776384000000000e+09
-6.599999970187435672e+00 6.024584192000000000e+09
-6.559999970368116884e+00 6.379892224000000000e+09
-6.519999970548799872e+00 6.616743424000000000e+09
-6.479999970729481973e+00 6.821543424000000000e+09
-6.439999970910164961e+00 7.351856128000000000e+09
-6.399999971090846174e+00 6.722526208000000000e+09
-6.359999971271528274e+00 4.191603200000000000e+09
-6.319999971452211263e+00 1.762343552000000000e+09
-6.279999971632893363e+00 1.804798976000000000e+09
-6.239999971813575463e+00 4.486526464000000000e+09
-6.199999971994257564e+00 8.012921344000000000e+09
-6.159999972174939664e+00 1.179288371200000000e+10
-6.119999972355622653e+00 1.363625881600000000e+10
-6.079999972536303865e+00 1.150465228800000000e+10
-6.039999972716985965e+00 7.427329536000000000e+09
-5.999999972897668954e+00 3.679319040000000000e+09
-5.959999973078351054e+00 1.914130304000000000e+09
-5.919999973259033155e+00 3.913794560000000000e+09
-5.879999973439715255e+00 1.065803776000000000e+10
-5.839999973620396467e+00 1.994673356800000000e+10
-5.799999973801080344e+00 3.048705843200000000e+10
-5.759999973981761556e+00 3.774126489600000000e+10
-5.719999974162444545e+00 4.114270617600000000e+10
-5.679999974343126645e+00 4.086259302400000000e+10
-5.639999974523807857e+00 3.413016780800000000e+10
-5.599999974704491734e+00 2.303481241600000000e+10
-5.559999974885172946e+00 1.201898803200000000e+10
-5.519999975065855047e+00 4.552094208000000000e+09
-5.479999975246538035e+00 1.166217344000000000e+09
-5.439999975427219248e+00 6.544757120000000000e+08
-5.399999975607903124e+00 2.851228672000000000e+09
-5.359999975788584337e+00 6.700674048000000000e+09
-5.319999975969265549e+00 7.479230976000000000e+09
-5.279999976149949426e+00 2.545603072000000000e+09
-5.239999976330630638e+00 9.417249920000000000e+08
-5.199999976511312738e+00 1.765891891200000000e+10
-5.159999976691995727e+00 4.131460710400000000e+10
-5.119999976872676939e+00 4.603982233600000000e+10
-5.079999977053359039e+00 3.383570432000000000e+10
-5.039999977234042028e+00 2.111072460800000000e+10
-4.999999977414724128e+00 1.408481177600000000e+10
-4.959999977595407117e+00 1.152606617600000000e+10
-4.919999977776088329e+00 8.371837440000000000e+09
-4.879999977956770429e+00 5.167139328000000000e+09
-4.839999978137453418e+00 3.313257216000000000e+09
-4.799999978318134630e+00 2.424728576000000000e+09
-4.759999978498816731e+00 1.819939456000000000e+09
-4.719999978679499719e+00 6.044351360000000000e+08
-4.679999978860181820e+00 9.370948800000000000e+07
-4.639999979040864808e+00 2.036821248000000000e+09
-4.599999979221546020e+00 1.154514739200000000e+10
-4.559999979402228121e+00 2.364493824000000000e+10
-4.519999979582911109e+00 3.183509094400000000e+10
-4.479999979763593210e+00 4.431203532800000000e+10
-4.439999979944274422e+00 5.689966182400000000e+10
-4.399999980124957411e+00 6.308092723200000000e+10
-4.359999980305639511e+00 6.844479488000000000e+10
-4.319999980486322499e+00 6.945553612800000000e+10
-4.279999980667003712e+00 5.120936755200000000e+10
-4.239999980847685812e+00 2.107052851200000000e+10
-4.199999981028368801e+00 3.705666816000000000e+09
-4.159999981209050901e+00 3.691698560000000000e+08
-4.119999981389732113e+00 4.367278080000000000e+09
-4.079999981570415102e+00 9.764590592000000000e+09
-4.039999981751097202e+00 1.611624140800000000e+10
-3.999999981931778859e+00 2.106727424000000000e+10
-3.959999982112461847e+00 2.138020659200000000e+10
-3.919999982293143503e+00 1.793733632000000000e+10
-3.879999982473826936e+00 1.669408972800000000e+10
-3.839999982654508148e+00 2.596077158400000000e+10
-3.799999982835189805e+00 3.697086873600000000e+10
-3.759999983015873237e+00 3.648090112000000000e+10
-3.719999983196554894e+00 2.737133977600000000e+10
-3.679999983377236550e+00 1.482499584000000000e+10
-3.639999983557919538e+00 4.516950016000000000e+09
-3.599999983738601195e+00 9.337100160000000000e+08
-3.559999983919284627e+00 1.869109888000000000e+09
-3.519999984099966284e+00 3.049384192000000000e+09
-3.479999984280647940e+00 2.479306240000000000e+09
-3.439999984461330929e+00 1.911049344000000000e+09
-3.399999984642012585e+00 2.654001920000000000e+09
-3.359999984822694241e+00 4.448749056000000000e+09
-3.319999985003377230e+00 6.064723968000000000e+09
-3.279999985184058886e+00 6.208149504000000000e+09
-3.239999985364742319e+00 8.214209024000000000e+09
-3.199999985545423975e+00 1.395504128000000000e+10
-3.159999985726105631e+00 2.810234675200000000e+10
-3.119999985906788620e+00 4.428255641600000000e+10
-3.079999986087470276e+00 5.066100326400000000e+10
-3.039999986268151932e+00 3.807635865600000000e+10
-2.999999986448835365e+00 3.091991347200000000e+10
-2.959999986629517021e+00 2.806533529600000000e+10
-2.919999986810200010e+00 1.928626380800000000e+10
-2.879999986990881666e+00 4.164250112000000000e+09
-2.839999987171563323e+00 4.114805504000000000e+09
-2.799999987352246311e+00 1.758748057600000000e+10
-2.759999987532927967e+00 2.038317465600000000e+10
-2.719999987713609624e+00 1.828192460800000000e+10
-2.679999987894293056e+00 1.434594713600000000e+10
-2.639999988074974713e+00 1.558208921600000000e+10
-2.599999988255656369e+00 1.741688832000000000e+10
-2.559999988436339358e+00 2.104050892800000000e+10
-2.519999988617021014e+00 3.800748032000000000e+10
-2.479999988797704447e+00 6.078696652800000000e+10
-2.439999988978386103e+00 7.019737088000000000e+10
-2.399999989159067315e+00 6.325715353600000000e+10
-2.359999989339750748e+00 5.095623884800000000e+10
-2.319999989520432404e+00 3.532510003200000000e+10
-2.279999989701114060e+00 2.275372032000000000e+10
-2.239999989881797049e+00 1.337548800000000000e+10
-2.199999990062478705e+00 7.388609024000000000e+09
-2.159999990243162138e+00 2.376890624000000000e+09
-2.119999990423843794e+00 9.420853600000000000e+07
-2.079999990604525451e+00 3.311756800000000000e+09
-2.039999990785208439e+00 9.135498240000000000e+09
-1.999999990965890095e+00 1.378178457600000000e+10
-1.959999991146571752e+00 1.537040691200000000e+10
-1.919999991327254962e+00 1.600161792000000000e+10
-1.879999991507936619e+00 1.619856998400000000e+10
-1.839999991688619829e+00 1.470915276800000000e+10
-1.799999991869301486e+00 1.229846732800000000e+10
-1.759999992049983142e+00 8.549436928000000000e+09
-1.719999992230666352e+00 2.958324736000000000e+09
-1.679999992411347787e+00 2.986464960000000000e+08
-1.639999992592029443e+00 7.427957248000000000e+09
-1.599999992772712654e+00 1.517689241600000000e+10
-1.559999992953394310e+00 2.300935782400000000e+10
-1.519999993134077521e+00 4.686152908800000000e+10
-1.479999993314759177e+00 4.084416921600000000e+10
-1.439999993495440833e+00 6.322654208000000000e+09
-1.399999993676124044e+00 1.032306380800000000e+10
-1.359999993856805700e+00 4.088146739200000000e+10
-1.319999994037487356e+00 4.776362803200000000e+10
-1.279999994218170567e+00 6.449209344000000000e+10
-1.239999994398852223e+00 9.324109824000000000e+10
-1.199999994579533658e+00 1.002159226880000000e+11
-1.159999994760216868e+00 7.976621670400000000e+10
-1.119999994940898524e+00 5.492923187200000000e+10
-1.079999995121581735e+00 3.648481280000000000e+10
-1.039999995302263391e+00 3.589913804800000000e+10
-9.999999954829450477e-01 4.647326924800000000e+10
-9.599999956636282583e-01 4.576565248000000000e+10
-9.199999958443099146e-01 4.049851187200000000e+10
-8.799999960249915709e-01 4.129272627200000000e+10
-8.399999962056747815e-01 6.145661747200000000e+10
-7.999999963863563268e-01 6.659191193600000000e+10
-7.599999965670395374e-01 5.455041740800000000e+10
-7.199999967477211937e-01 4.447680921600000000e+10
-6.799999969284028500e-01 3.319894425600000000e+10
-6.399999971090860607e-01 1.619766988800000000e+10
-5.999999972897677170e-01 6.615000064000000000e+09
-5.599999974704492622e-01 3.194201088000000000e+09
-5.199999976511324729e-01 3.230940672000000000e+09
-4.799999978318141292e-01 9.279924224000000000e+09
-4.399999980124973398e-01 1.760843980800000000e+10
-3.999999981931789961e-01 2.688143564800000000e+10
-3.599999983738605969e-01 4.039549337600000000e+10
-3.199999985545438075e-01 6.063667200000000000e+10
-2.799999987352254638e-01 7.302459392000000000e+10
-2.399999989159070646e-01 5.992763801600000000e+10
-1.999999990965902752e-01 4.014135705600000000e+10
-1.599999992772719037e-01 3.442917785600000000e+10
-1.199999994579535323e-01 3.310360985600000000e+10
-7.999999963863674290e-02 3.606891724800000000e+10
-3.999999981931837145e-02 3.990609510400000000e+10
-1.577721810442023611e-15 4.385386905600000000e+10
3.999999981931678938e-02 3.329416601600000000e+10
7.999999963863516084e-02 1.853561241600000000e+10
1.199999994579519502e-01 8.940261376000000000e+09
1.599999992772703217e-01 1.530967859200000000e+10
1.999999990965886931e-01 2.333373440000000000e+10
2.399999989159054825e-01 2.538406912000000000e+10
2.799999987352238540e-01 1.502686412800000000e+10
3.199999985545406433e-01 2.725346816000000000e+09
3.599999983738590426e-01 6.936449536000000000e+09
3.999999981931773863e-01 3.371302707200000000e+10
4.399999980124941756e-01 5.637041766400000000e+10
4.799999978318125748e-01 4.716405964800000000e+10
5.199999976511309185e-01 2.090532659200000000e+10
5.599999974704477079e-01 5.194583040000000000e+09
5.999999972897660516e-01 1.270288793600000000e+10
6.399999971090828410e-01 3.199566438400000000e+10
6.799999969284012957e-01 4.589771980800000000e+10
7.199999967477196394e-01 4.507048345600000000e+10
7.599999965670364288e-01 3.504095232000000000e+10
7.999999963863547725e-01 2.362730700800000000e+10
8.399999962056731162e-01 1.047044300800000000e+10
8.799999960249899056e-01 4.119606528000000000e+09
9.199999958443083603e-01 5.338628096000000000e+09
9.599999956636251497e-01 1.066979840000000000e+10
9.999999954829434934e-01 1.712902451200000000e+10
1.039999995302261837e+00 2.341443993600000000e+10
1.079999995121578626e+00 1.984952934400000000e+10
1.119999994940896970e+00 1.159269888000000000e+10
1.159999994760215314e+00 1.055144640000000000e+09
1.199999994579532103e+00 3.840380928000000000e+09
1.239999994398850447e+00 1.369007001600000000e+10
1.279999994218169013e+00 3.094315622400000000e+10
1.319999994037487356e+00 6.965254553600000000e+10
1.359999993856802591e+00 1.171011747840000000e+11
1.399999993676120935e+00 1.478054543360000000e+11
1.439999993495439279e+00 1.399049912320000000e+11
1.479999993314757623e+00 9.687665049600000000e+10
1.519999993134075966e+00 4.886121267200000000e+10
1.559999992953391201e+00 1.744720281600000000e+10
1.599999992772709545e+00 8.733746176000000000e+09
1.639999992592027889e+00 9.467991040000000000e+09
1.679999992411346232e+00 1.152475238400000000e+10
1.719999992230664798e+00 1.382683750400000000e+10
1.759999992049983142e+00 1.490059776000000000e+10
1.799999991869298377e+00 1.154865254400000000e+10
1.839999991688616721e+00 5.522946560000000000e+09
1.879999991507935064e+00 1.306378444800000000e+10
1.919999991327253408e+00 1.850403225600000000e+10
1.959999991146571752e+00 1.109215027200000000e+10
1.999999990965886987e+00 1.408933683200000000e+10
2.039999990785205330e+00 4.383301222400000000e+10
2.079999990604523674e+00 5.908799078400000000e+10
2.119999990423842018e+00 6.909071360000000000e+10
2.159999990243160362e+00 1.104414474240000000e+11
2.199999990062475597e+00 1.624111349760000000e+11
2.239999989881793940e+00 1.719428710400000000e+11
2.279999989701112284e+00 1.157028577280000000e+11
2.319999989520430628e+00 5.743370649600000000e+10
2.359999989339748971e+00 2.669342310400000000e+10
2.399999989159067315e+00 8.839339008000000000e+09
2.439999988978382550e+00 1.504765440000000000e+09
2.479999988797700894e+00 1.045579776000000000e+10
2.519999988617019682e+00 3.398337536000000000e+10
2.559999988436338025e+00 4.758620160000000000e+10
2.599999988255656369e+00 3.884224921600000000e+10
2.639999988074971604e+00 2.390451609600000000e+10
2.679999987894289948e+00 1.272845926400000000e+10
2.719999987713608292e+00 6.870177280000000000e+09
2.759999987532926635e+00 1.682350464000000000e+09
2.799999987352244979e+00 2.705197440000000000e+08
2.839999987171563323e+00 3.330602752000000000e+09
2.879999986990878558e+00 2.547994624000000000e+09
2.919999986810196901e+00 8.136375040000000000e+08
2.959999986629515245e+00 6.133677056000000000e+09
2.999999986448833589e+00 2.447650816000000000e+10
3.039999986268151932e+00 4.203168972800000000e+10
3.079999986087467168e+00 4.973946060800000000e+10
3.119999985906785511e+00 6.478722252800000000e+10
3.159999985726103855e+00 5.860340531200000000e+10
3.199999985545422199e+00 1.347591884800000000e+10
3.239999985364740542e+00 7.393945088000000000e+09
3.279999985184055777e+00 6.193293721600000000e+10
3.319999985003374121e+00 8.207391129600000000e+10
3.359999984822692465e+00 5.231507046400000000e+10
3.399999984642010808e+00 6.358634086400000000e+10
3.439999984461329596e+00 1.261577502720000000e+11
3.479999984280647940e+00 1.486189363200000000e+11
3.519999984099963175e+00 1.347002695680000000e+11
3.559999983919281519e+00 8.950711910400000000e+10
3.599999983738599862e+00 3.718469222400000000e+10
3.639999983557918206e+00 1.573298176000000000e+10
3.679999983377236550e+00 7.474055168000000000e+09
3.719999983196551785e+00 2.035958528000000000e+09
3.759999983015870129e+00 6.635159040000000000e+08
3.799999982835188472e+00 7.313565696000000000e+09
3.839999982654506816e+00 1.367652044800000000e+10
3.879999982473825160e+00 1.811360768000000000e+10
3.919999982293143503e+00 1.905258086400000000e+10
3.959999982112458738e+00 2.213632819200000000e+10
3.999999981931777082e+00 1.655901081600000000e+10
4.039999981751095426e+00 1.949106688000000000e+09
4.079999981570414214e+00 4.638492672000000000e+09
4.119999981389732113e+00 2.216073420800000000e+10
4.159999981209047348e+00 3.295601049600000000e+10
4.199999981028366136e+00 3.469252198400000000e+10
