# x = Time (fs); y = Power (W)
-1.171999994706011172e+01 1.502978944000000000e+09
-1.167999994724079293e+01 1.553145216000000000e+09
-1.163999994742147770e+01 1.539749504000000000e+09
-1.159999994760215891e+01 1.492969088000000000e+09
-1.155999994778284012e+01 1.435540864000000000e+09
-1.151999994796352311e+01 1.413181824000000000e+09
-1.147999994814420432e+01 1.451109120000000000e+09
-1.143999994832488731e+01 1.556649088000000000e+09
-1.139999994850557030e+01 1.745552896000000000e+09
-1.135999994868625151e+01 1.950704512000000000e+09
-1.131999994886693450e+01 2.092680448000000000e+09
-1.127999994904761571e+01 2.057279744000000000e+09
-1.123999994922829870e+01 1.781822592000000000e+09
-1.119999994940898169e+01 1.337630080000000000e+09
-1.115999994958966290e+01 8.833688320000000000e+08
-1.111999994977034589e+01 5.173832320000000000e+08
-1.107999994995102711e+01 2.817642240000000000e+08
-1.103999995013171009e+01 1.778652960000000000e+08
-1.099999995031239131e+01 1.961239200000000000e+08
-1.095999995049307429e+01 3.369633280000000000e+08
-1.091999995067375551e+01 5.938864640000000000e+08
-1.087999995085443850e+01 9.313422080000000000e+08
-1.083999995103512148e+01 1.356444672000000000e+09
-1.079999995121580270e+01 1.831484672000000000e+09
-1.075999995139648568e+01 2.317189632000000000e+09
-1.071999995157716690e+01 2.893327616000000000e+09
-1.067999995175784989e+01 3.551970304000000000e+09
-1.063999995193853110e+01 4.381134336000000000e+09
-1.059999995211921409e+01 5.502257664000000000e+09
-1.055999995229989707e+01 6.898672640000000000e+09
-1.051999995248057829e+01 8.325432832000000000e+09
-1.047999995266126128e+01 8.977350656000000000e+09
-1.043999995284194249e+01 7.867507712000000000e+09
-1.039999995302262548e+01 5.681724416000000000e+09
-1.035999995320330669e+01 3.496528640000000000e+09
-1.031999995338398968e+01 1.820029056000000000e+09
-1.027999995356467089e+01 7.682908800000000000e+08
-1.023999995374535388e+01 2.866751680000000000e+08
-1.019999995392603687e+01 2.349180000000000000e+08
-1.015999995410671808e+01 5.113420160000000000e+08
-1.011999995428740107e+01 9.851175040000000000e+08
-1.007999995446808228e+01 1.537064960000000000e+09
-1.003999995464876527e+01 2.082162432000000000e+09
-9.999999954829448257e+00 2.560904448000000000e+09
-9.959999955010129469e+00 3.086268416000000000e+09
-9.919999955190810681e+00 3.817319680000000000e+09
-9.879999955371493670e+00 4.597202432000000000e+09
-9.839999955552174882e+00 5.036476416000000000e+09
-9.799999955732859647e+00 5.147050496000000000e+09
-9.759999955913540859e+00 4.867206144000000000e+09
-9.719999956094222071e+00 4.439593984000000000e+09
-9.679999956274905060e+00 4.082766336000000000e+09
-9.639999956455586272e+00 3.492032256000000000e+09
-9.599999956636269260e+00 2.999755776000000000e+09
-9.559999956816952249e+00 2.565854208000000000e+09
-9.519999956997633461e+00 2.078594688000000000e+09
-9.479999957178316450e+00 1.627882112000000000e+09
-9.439999957358997662e+00 1.273369984000000000e+09
-9.399999957539680651e+00 1.009242112000000000e+09
-9.359999957720363639e+00 8.749651200000000000e+08
-9.319999957901044851e+00 8.669727360000000000e+08
-9.279999958081726064e+00 9.888267520000000000e+08
-9.239999958262409052e+00 1.150506752000000000e+09
-9.199999958443092041e+00 1.306493312000000000e+09
-9.159999958623775029e+00 1.335572480000000000e+09
-9.119999958804456242e+00 1.155228288000000000e+09
-9.079999958985137454e+00 8.558608640000000000e+08
-9.039999959165818666e+00 4.994929280000000000e+08
-8.999999959346501655e+00 2.826969920000000000e+08
-8.959999959527186419e+00 2.864638400000000000e+08
-8.919999959707867632e+00 5.675348480000000000e+08
-8.879999959888548844e+00 1.296869632000000000e+09
-8.839999960069230056e+00 2.564686592000000000e+09
-8.799999960249913045e+00 4.278317312000000000e+09
-8.759999960430597810e+00 6.071586304000000000e+09
-8.719999960611279022e+00 7.547335680000000000e+09
-8.679999960791960234e+00 8.742702080000000000e+09
-8.639999960972641446e+00 9.406045184000000000e+09
-8.599999961153324435e+00 8.984446976000000000e+09
-8.559999961334007423e+00 7.621160960000000000e+09
-8.519999961514690412e+00 5.376497664000000000e+09
-8.479999961695371624e+00 3.142896896000000000e+09
-8.439999961876052836e+00 1.471700608000000000e+09
-8.399999962056734049e+00 6.086794240000000000e+08
-8.359999962237418814e+00 4.879088640000000000e+08
-8.319999962418101802e+00 1.094823552000000000e+09
-8.279999962598783014e+00 2.908439808000000000e+09
-8.239999962779464227e+00 6.406681088000000000e+09
-8.199999962960145439e+00 1.105813299200000000e+10
-8.159999963140828427e+00 1.479576780800000000e+10
-8.119999963321513192e+00 1.592444928000000000e+10
-8.079999963502194404e+00 1.389454950400000000e+10
-8.039999963682875617e+00 1.037878886400000000e+10
-7.999999963863557717e+00 7.371153920000000000e+09
-7.959999964044240706e+00 5.148845056000000000e+09
-7.919999964224921918e+00 3.678084096000000000e+09
-7.879999964405605795e+00 2.082835584000000000e+09
-7.839999964586287007e+00 7.975913600000000000e+08
-7.799999964766968219e+00 2.406338400000000000e+08
-7.759999964947650319e+00 5.550259840000000000e+08
-7.719999965128333308e+00 1.553874432000000000e+09
-7.679999965309016297e+00 2.832272896000000000e+09
-7.639999965489698397e+00 1.875923584000000000e+09
-7.599999965670379609e+00 2.415310720000000000e+08
-7.559999965851061710e+00 6.364494336000000000e+09
-7.519999966031744698e+00 2.859967692800000000e+10
-7.479999966212426799e+00 5.757301555200000000e+10
-7.439999966393109787e+00 7.418179584000000000e+10
-7.399999966573790999e+00 6.748908748800000000e+10
-7.359999966754473100e+00 4.631740825600000000e+10
-7.319999966935154312e+00 2.399085977600000000e+10
-7.279999967115837300e+00 9.655225344000000000e+09
-7.239999967296521177e+00 2.737301248000000000e+09
-7.199999967477202389e+00 1.357151488000000000e+09
-7.159999967657884490e+00 1.473255680000000000e+09
-7.119999967838565702e+00 1.977328128000000000e+09
-7.079999968019248691e+00 2.052490368000000000e+09
-7.039999968199931679e+00 2.491342592000000000e+09
-6.999999968380612891e+00 3.320773120000000000e+09
-6.959999968561295880e+00 3.876770048000000000e+09
-6.919999968741977980e+00 4.492568064000000000e+09
-6.879999968922660081e+00 4.364220416000000000e+09
-6.839999969103342181e+00 4.009523456000000000e+09
-6.799999969284024282e+00 3.807076096000000000e+09
-6.759999969464706382e+00 3.784867840000000000e+09
-6.719999969645389370e+00 4.126329600000000000e+09
-6.679999969826070583e+00 4.856747008000000000e+09
-6.639999970006753571e+00 6.120025600000000000e+09
-6.599999970187435672e+00 8.014495232000000000e+09
-6.559999970368116884e+00 1.052948172800000000e+10
-6.519999970548799872e+00 1.254159052800000000e+10
-6.479999970729481973e+00 1.119323955200000000e+10
-6.439999970910164961e+00 9.221305344000000000e+09
-6.399999971090846174e+00 6.654798848000000000e+09
-6.359999971271528274e+00 4.784583168000000000e+09
-6.319999971452211263e+00 4.072616192000000000e+09
-6.279999971632893363e+00 3.084980736000000000e+09
-6.239999971813575463e+00 3.186464256000000000e+09
-6.199999971994257564e+00 1.936357504000000000e+09
-6.159999972174939664e+00 2.097486592000000000e+09
-6.119999972355622653e+00 4.347957248000000000e+09
-6.079999972536303865e+00 3.685902848000000000e+09
-6.039999972716985965e+00 2.912033600000000000e+08
-5.999999972897668954e+00 3.816856320000000000e+09
-5.959999973078351054e+00 2.087704576000000000e+10
-5.919999973259033155e+00 5.184365363200000000e+10
-5.879999973439715255e+00 7.682542796800000000e+10
-5.839999973620396467e+00 6.627788800000000000e+10
-5.799999973801080344e+00 4.315601715200000000e+10
-5.759999973981761556e+00 2.266181632000000000e+10
-5.719999974162444545e+00 1.280152985600000000e+10
-5.679999974343126645e+00 7.815389184000000000e+09
-5.639999974523807857e+00 4.497060864000000000e+09
-5.599999974704491734e+00 3.901170176000000000e+09
-5.559999974885172946e+00 3.623656448000000000e+09
-5.519999975065855047e+00 4.441414144000000000e+09
-5.479999975246538035e+00 5.732426752000000000e+09
-5.439999975427219248e+00 5.395164672000000000e+09
-5.399999975607903124e+00 5.064006656000000000e+09
-5.359999975788584337e+00 6.944889344000000000e+09
-5.319999975969265549e+00 1.166711500800000000e+10
-5.279999976149949426e+00 1.730354585600000000e+10
-5.239999976330630638e+00 2.002884198400000000e+10
-5.199999976511312738e+00 2.156474572800000000e+10
-5.159999976691995727e+00 2.273934540800000000e+10
-5.119999976872676939e+00 1.907124019200000000e+10
-5.079999977053359039e+00 1.334938828800000000e+10
-5.039999977234042028e+00 6.256319488000000000e+09
-4.999999977414724128e+00 2.032143616000000000e+09
-4.959999977595407117e+00 3.393631488000000000e+09
-4.919999977776088329e+00 8.014448128000000000e+09
-4.879999977956770429e+00 1.217797836800000000e+10
-4.839999978137453418e+00 1.290073497600000000e+10
-4.799999978318134630e+00 1.161699430400000000e+10
-4.759999978498816731e+00 9.196836864000000000e+09
-4.719999978679499719e+00 5.830259712000000000e+09
-4.679999978860181820e+00 3.467447040000000000e+09
-4.639999979040864808e+00 2.141029248000000000e+09
-4.599999979221546020e+00 1.659076608000000000e+09
-4.559999979402228121e+00 2.981022720000000000e+09
-4.519999979582911109e+00 6.686172160000000000e+09
-4.479999979763593210e+00 7.735634944000000000e+09
-4.439999979944274422e+00 9.396760576000000000e+09
-4.399999980124957411e+00 1.268397465600000000e+10
-4.359999980305639511e+00 2.935867596800000000e+10
-4.319999980486322499e+00 7.301220761600000000e+10
-4.279999980667003712e+00 1.237610659840000000e+11
-4.239999980847685812e+00 1.332131020800000000e+11
-4.199999981028368801e+00 8.929147289600000000e+10
-4.159999981209050901e+00 3.546463436800000000e+10
-4.119999981389732113e+00 7.499042816000000000e+09
-4.079999981570415102e+00 1.032412800000000000e+09
-4.039999981751097202e+00 2.976874496000000000e+09
-3.999999981931778859e+00 6.062519808000000000e+09
-3.959999982112461847e+00 6.579062784000000000e+09
-3.919999982293143503e+00 6.136647680000000000e+09
-3.879999982473826936e+00 5.561113088000000000e+09
-3.839999982654508148e+00 4.289426944000000000e+09
-3.799999982835189805e+00 3.580882688000000000e+09
-3.759999983015873237e+00 3.070589696000000000e+09
-3.719999983196554894e+00 1.455233792000000000e+09
-3.679999983377236550e+00 3.419558400000000000e+08
-3.639999983557919538e+00 4.651626560000000000e+08
-3.599999983738601195e+00 2.839715328000000000e+09
-3.559999983919284627e+00 6.614919168000000000e+09
-3.519999984099966284e+00 1.778976358400000000e+10
-3.479999984280647940e+00 3.921077862400000000e+10
-3.439999984461330929e+00 6.129917952000000000e+10
-3.399999984642012585e+00 6.010831667200000000e+10
-3.359999984822694241e+00 3.817478553600000000e+10
-3.319999985003377230e+00 1.401824153600000000e+10
-3.279999985184058886e+00 1.974993280000000000e+09
-3.239999985364742319e+00 4.567482880000000000e+09
-3.199999985545423975e+00 1.834881638400000000e+10
-3.159999985726105631e+00 2.626767872000000000e+10
-3.119999985906788620e+00 2.626532966400000000e+10
-3.079999986087470276e+00 2.351255142400000000e+10
-3.039999986268151932e+00 2.042369638400000000e+10
-2.999999986448835365e+00 1.470956032000000000e+10
-2.959999986629517021e+00 6.423344128000000000e+09
-2.919999986810200010e+00 7.045886720000000000e+08
-2.879999986990881666e+00 1.309540992000000000e+09
-2.839999987171563323e+00 4.759222784000000000e+09
-2.799999987352246311e+00 4.830887424000000000e+09
-2.759999987532927967e+00 4.908799488000000000e+09
-2.719999987713609624e+00 6.847793152000000000e+09
-2.679999987894293056e+00 9.313049600000000000e+09
-2.639999988074974713e+00 7.855828992000000000e+09
-2.599999988255656369e+00 3.896781824000000000e+09
-2.559999988436339358e+00 6.926013440000000000e+08
-2.519999988617021014e+00 1.179411712000000000e+09
-2.479999988797704447e+00 9.028846592000000000e+09
-2.439999988978386103e+00 4.161369292800000000e+10
-2.399999989159067315e+00 9.591084646400000000e+10
-2.359999989339750748e+00 1.210340720640000000e+11
-2.319999989520432404e+00 1.259486330880000000e+11
-2.279999989701114060e+00 1.035352965120000000e+11
-2.239999989881797049e+00 5.803286937600000000e+10
-2.199999990062478705e+00 2.524079513600000000e+10
-2.159999990243162138e+00 1.544626073600000000e+10
-2.119999990423843794e+00 1.284153856000000000e+10
-2.079999990604525451e+00 1.082891468800000000e+10
-2.039999990785208439e+00 9.424193536000000000e+09
-1.999999990965890095e+00 5.988433408000000000e+09
-1.959999991146571752e+00 2.680471808000000000e+09
-1.919999991327254962e+00 6.492737024000000000e+09
-1.879999991507936619e+00 1.033906892800000000e+10
-1.839999991688619829e+00 9.075211264000000000e+09
-1.799999991869301486e+00 9.889245184000000000e+09
-1.759999992049983142e+00 1.191182950400000000e+10
-1.719999992230666352e+00 6.297345024000000000e+09
-1.679999992411347787e+00 7.158375424000000000e+09
-1.639999992592029443e+00 2.275723673600000000e+10
-1.599999992772712654e+00 5.151063654400000000e+10
-1.559999992953394310e+00 8.208016179200000000e+10
-1.519999993134077521e+00 9.607729152000000000e+10
-1.479999993314759177e+00 7.813101977600000000e+10
-1.439999993495440833e+00 3.478991257600000000e+10
-1.399999993676124044e+00 9.387955200000000000e+09
-1.359999993856805700e+00 4.087059200000000000e+09
-1.319999994037487356e+00 2.829020672000000000e+09
-1.279999994218170567e+00 4.710283776000000000e+09
-1.239999994398852223e+00 1.141207040000000000e+10
-1.199999994579533658e+00 1.645908582400000000e+10
-1.159999994760216868e+00 1.407857664000000000e+10
-1.119999994940898524e+00 7.667057152000000000e+09
-1.079999995121581735e+00 3.353577984000000000e+09
-1.039999995302263391e+00 4.516190208000000000e+09
-9.999999954829450477e-01 2.078497996800000000e+10
-9.599999956636282583e-01 3.144060928000000000e+10
-9.199999958443099146e-01 4.920314368000000000e+09
-8.799999960249915709e-01 1.515756851200000000e+10
-8.399999962056747815e-01 7.068875980800000000e+10
-7.999999963863563268e-01 7.190682009600000000e+10
-7.599999965670395374e-01 5.460979712000000000e+10
-7.199999967477211937e-01 6.621811507200000000e+10
-6.799999969284028500e-01 9.895524761600000000e+10
-6.399999971090860607e-01 1.486525890560000000e+11
-5.999999972897677170e-01 1.319585628160000000e+11
-5.599999974704492622e-01 6.854116556800000000e+10
-5.199999976511324729e-01 2.651188838400000000e+10
-4.799999978318141292e-01 1.265795584000000000e+10
-4.399999980124973398e-01 8.902130688000000000e+09
-3.999999981931789961e-01 4.830419968000000000e+09
-3.599999983738605969e-01 2.405637376000000000e+09
-3.199999985545438075e-01 4.300748288000000000e+09
-2.799999987352254638e-01 5.658006016000000000e+09
-2.399999989159070646e-01 4.184372480000000000e+09
-1.999999990965902752e-01 9.848742400000000000e+08
-1.599999992772719037e-01 7.349481472000000000e+09
-1.199999994579535323e-01 1.785537945600000000e+10
-7.999999963863674290e-02 1.589357875200000000e+10
-3.999999981931837145e-02 1.738406707200000000e+10
-1.577721810442023611e-15 2.193376256000000000e+10
3.999999981931678938e-02 2.430803148800000000e+10
7.999999963863516084e-02 2.598952345600000000e+10
1.199999994579519502e-01 1.545810432000000000e+10
1.599999992772703217e-01 1.307652300800000000e+10
1.999999990965886931e-01 3.234829516800000000e+10
2.399999989159054825e-01 7.146423091200000000e+10
2.799999987352238540e-01 1.083687403520000000e+11
3.199999985545406433e-01 9.898781900800000000e+10
3.599999983738590426e-01 6.548246528000000000e+10
3.999999981931773863e-01 4.146384486400000000e+10
4.399999980124941756e-01 2.930283110400000000e+10
4.799999978318125748e-01 1.863731200000000000e+10
5.199999976511309185e-01 8.877431808000000000e+09
5.599999974704477079e-01 5.185318400000000000e+09
5.999999972897660516e-01 1.352219852800000000e+10
6.399999971090828410e-01 1.701046476800000000e+10
6.799999969284012957e-01 9.788575744000000000e+09
7.199999967477196394e-01 1.047041760000000000e+08
7.599999965670364288e-01 1.028054835200000000e+10
7.999999963863547725e-01 3.981345996800000000e+10
8.399999962056731162e-01 5.824043827200000000e+10
8.799999960249899056e-01 6.002333696000000000e+10
9.199999958443083603e-01 5.665346355200000000e+10
9.599999956636251497e-01 6.229597388800000000e+10
9.999999954829434934e-01 4.268307251200000000e+10
1.039999995302261837e+00 1.834796032000000000e+10
1.079999995121578626e+00 8.081647616000000000e+09
1.119999994940896970e+00 6.473973760000000000e+09
1.159999994760215314e+00 1.098251520000000000e+09
1.199999994579532103e+00 5.283407680000000000e+08
1.239999994398850447e+00 7.887378560000000000e+08
1.279999994218169013e+00 2.561077760000000000e+09
1.319999994037487356e+00 2.501412044800000000e+10
1.359999993856802591e+00 5.916369715200000000e+10
1.399999993676120935e+00 7.953992089600000000e+10
1.439999993495439279e+00 6.960830054400000000e+10
1.479999993314757623e+00 3.175469875200000000e+10
1.519999993134075966e+00 1.400333824000000000e+09
1.559999992953391201e+00 2.040427724800000000e+10
1.599999992772709545e+00 6.476935168000000000e+10
1.639999992592027889e+00 7.155190169600000000e+10
1.679999992411346232e+00 5.717942272000000000e+10
1.719999992230664798e+00 7.108132044800000000e+10
1.759999992049983142e+00 1.033043968000000000e+11
1.799999991869298377e+00 1.179498250240000000e+11
1.839999991688616721e+00 8.111313715200000000e+10
1.879999991507935064e+00 3.964288614400000000e+10
1.919999991327253408e+00 2.117734604800000000e+10
1.959999991146571752e+00 1.653094400000000000e+10
1.999999990965886987e+00 1.416885555200000000e+10
2.039999990785205330e+00 9.212888064000000000e+09
2.079999990604523674e+00 5.146221056000000000e+09
2.119999990423842018e+00 2.757446912000000000e+09
2.159999990243160362e+00 1.793650560000000000e+09
2.199999990062475597e+00 1.843567104000000000e+09
2.239999989881793940e+00 2.669675520000000000e+09
2.279999989701112284e+00 3.218464256000000000e+09
2.319999989520430628e+00 4.451802112000000000e+09
2.359999989339748971e+00 6.028017664000000000e+09
2.399999989159067315e+00 8.966578176000000000e+09
2.439999988978382550e+00 1.229409075200000000e+10
2.479999988797700894e+00 1.613599641600000000e+10
2.519999988617019682e+00 2.000881254400000000e+10
2.559999988436338025e+00 2.280764211200000000e+10
2.599999988255656369e+00 2.401879449600000000e+10
2.639999988074971604e+00 1.984662937600000000e+10
2.679999987894289948e+00 1.164244172800000000e+10
2.719999987713608292e+00 3.541120000000000000e+09
2.759999987532926635e+00 2.757362944000000000e+09
2.799999987352244979e+00 1.186715136000000000e+10
2.839999987171563323e+00 1.835902976000000000e+10
2.879999986990878558e+00 2.114688409600000000e+10
2.919999986810196901e+00 3.500519833600000000e+10
2.959999986629515245e+00 6.436579328000000000e+10
2.999999986448833589e+00 1.123363471360000000e+11
3.039999986268151932e+00 1.398314434560000000e+11
3.079999986087467168e+00 1.222396477440000000e+11
3.119999985906785511e+00 7.025843404800000000e+10
3.159999985726103855e+00 2.918307635200000000e+10
3.199999985545422199e+00 1.085520793600000000e+10
3.239999985364740542e+00 9.987733504000000000e+09
3.279999985184055777e+00 1.043035648000000000e+10
3.319999985003374121e+00 5.172333056000000000e+09
3.359999984822692465e+00 1.311728320000000000e+08
3.399999984642010808e+00 1.588058112000000000e+09
3.439999984461329596e+00 3.585066240000000000e+08
3.479999984280647940e+00 1.560044672000000000e+09
3.519999984099963175e+00 4.217600768000000000e+09
3.559999983919281519e+00 6.558526080000000000e+08
3.599999983738599862e+00 1.101521305600000000e+10
3.639999983557918206e+00 5.498832076800000000e+10
3.679999983377236550e+00 9.335254220800000000e+10
3.719999983196551785e+00 1.078222192640000000e+11
3.759999983015870129e+00 1.016184995840000000e+11
3.799999982835188472e+00 8.123020083200000000e+10
3.839999982654506816e+00 5.712169779200000000e+10
3.879999982473825160e+00 3.505056563200000000e+10
3.919999982293143503e+00 1.739494809600000000e+10
3.959999982112458738e+00 8.553366016000000000e+09
