# x = Time (fs); y = Power (W)
-1.151999994796352311e+01 1.648755072000000000e+09
-1.147999994814420432e+01 1.588941824000000000e+09
-1.143999994832488731e+01 1.432349824000000000e+09
-1.139999994850557030e+01 1.225762816000000000e+09
-1.135999994868625151e+01 1.037575424000000000e+09
-1.131999994886693450e+01 8.860864640000000000e+08
-1.127999994904761571e+01 7.939052160000000000e+08
-1.123999994922829870e+01 7.365502080000000000e+08
-1.119999994940898169e+01 7.039882240000000000e+08
-1.115999994958966290e+01 6.940532480000000000e+08
-1.111999994977034589e+01 6.875701760000000000e+08
-1.107999994995102711e+01 6.882588800000000000e+08
-1.103999995013171009e+01 7.057213440000000000e+08
-1.099999995031239131e+01 7.341130240000000000e+08
-1.095999995049307429e+01 7.633462400000000000e+08
-1.091999995067375551e+01 8.005032960000000000e+08
-1.087999995085443850e+01 8.577740160000000000e+08
-1.083999995103512148e+01 9.150393600000000000e+08
-1.079999995121580270e+01 1.002742272000000000e+09
-1.075999995139648568e+01 1.129213952000000000e+09
-1.071999995157716690e+01 1.295164928000000000e+09
-1.067999995175784989e+01 1.525687808000000000e+09
-1.063999995193853110e+01 1.851448448000000000e+09
-1.059999995211921409e+01 2.274973184000000000e+09
-1.055999995229989707e+01 2.823800832000000000e+09
-1.051999995248057829e+01 3.435543808000000000e+09
-1.047999995266126128e+01 4.057992960000000000e+09
-1.043999995284194249e+01 4.572181504000000000e+09
-1.039999995302262548e+01 4.846440448000000000e+09
-1.035999995320330669e+01 4.886635520000000000e+09
-1.031999995338398968e+01 4.705960960000000000e+09
-1.027999995356467089e+01 4.419829248000000000e+09
-1.023999995374535388e+01 4.169069312000000000e+09
-1.019999995392603687e+01 3.944221440000000000e+09
-1.015999995410671808e+01 3.774115584000000000e+09
-1.011999995428740107e+01 3.678161920000000000e+09
-1.007999995446808228e+01 3.602356736000000000e+09
-1.003999995464876527e+01 3.526575616000000000e+09
-9.999999954829448257e+00 3.482671104000000000e+09
-9.959999955010129469e+00 3.429698304000000000e+09
-9.919999955190810681e+00 3.413920768000000000e+09
-9.879999955371493670e+00 3.426442240000000000e+09
-9.839999955552174882e+00 3.416273152000000000e+09
-9.799999955732859647e+00 3.381234688000000000e+09
-9.759999955913540859e+00 3.346756608000000000e+09
-9.719999956094222071e+00 3.194457344000000000e+09
-9.679999956274905060e+00 2.985909760000000000e+09
-9.639999956455586272e+00 2.738445824000000000e+09
-9.599999956636269260e+00 2.411099392000000000e+09
-9.559999956816952249e+00 2.103694848000000000e+09
-9.519999956997633461e+00 1.829510400000000000e+09
-9.479999957178316450e+00 1.646795264000000000e+09
-9.439999957358997662e+00 1.646530688000000000e+09
-9.399999957539680651e+00 1.969930752000000000e+09
-9.359999957720363639e+00 2.708493824000000000e+09
-9.319999957901044851e+00 3.961101568000000000e+09
-9.279999958081726064e+00 5.549665792000000000e+09
-9.239999958262409052e+00 6.769868800000000000e+09
-9.199999958443092041e+00 6.937264640000000000e+09
-9.159999958623775029e+00 6.184779264000000000e+09
-9.119999958804456242e+00 4.952260608000000000e+09
-9.079999958985137454e+00 3.743647488000000000e+09
-9.039999959165818666e+00 2.883543296000000000e+09
-8.999999959346501655e+00 2.322423296000000000e+09
-8.959999959527186419e+00 1.904105984000000000e+09
-8.919999959707867632e+00 1.553884928000000000e+09
-8.879999959888548844e+00 1.151482880000000000e+09
-8.839999960069230056e+00 5.967240960000000000e+08
-8.799999960249913045e+00 1.298940400000000000e+08
-8.759999960430597810e+00 1.189644800000000000e+08
-8.719999960611279022e+00 7.635299200000000000e+08
-8.679999960791960234e+00 2.049316480000000000e+09
-8.639999960972641446e+00 3.648359680000000000e+09
-8.599999961153324435e+00 5.238136832000000000e+09
-8.559999961334007423e+00 6.972607488000000000e+09
-8.519999961514690412e+00 8.986229760000000000e+09
-8.479999961695371624e+00 1.080533401600000000e+10
-8.439999961876052836e+00 1.212395417600000000e+10
-8.399999962056734049e+00 1.243118489600000000e+10
-8.359999962237418814e+00 1.167975731200000000e+10
-8.319999962418101802e+00 1.026631270400000000e+10
-8.279999962598783014e+00 8.612027392000000000e+09
-8.239999962779464227e+00 7.140737024000000000e+09
-8.199999962960145439e+00 5.756511744000000000e+09
-8.159999963140828427e+00 4.431268864000000000e+09
-8.119999963321513192e+00 3.177348608000000000e+09
-8.079999963502194404e+00 2.086034304000000000e+09
-8.039999963682875617e+00 1.301001600000000000e+09
-7.999999963863557717e+00 7.934636800000000000e+08
-7.959999964044240706e+00 4.108719680000000000e+08
-7.919999964224921918e+00 2.543141120000000000e+08
-7.879999964405605795e+00 5.430087040000000000e+08
-7.839999964586287007e+00 1.424554624000000000e+09
-7.799999964766968219e+00 2.898646272000000000e+09
-7.759999964947650319e+00 4.868979712000000000e+09
-7.719999965128333308e+00 6.737506304000000000e+09
-7.679999965309016297e+00 7.879535104000000000e+09
-7.639999965489698397e+00 7.752182784000000000e+09
-7.599999965670379609e+00 6.805733888000000000e+09
-7.559999965851061710e+00 5.806003200000000000e+09
-7.519999966031744698e+00 4.822043648000000000e+09
-7.479999966212426799e+00 3.702172416000000000e+09
-7.439999966393109787e+00 2.534518784000000000e+09
-7.399999966573790999e+00 2.192908032000000000e+09
-7.359999966754473100e+00 3.610096128000000000e+09
-7.319999966935154312e+00 6.794899968000000000e+09
-7.279999967115837300e+00 1.114621030400000000e+10
-7.239999967296521177e+00 1.511126425600000000e+10
-7.199999967477202389e+00 1.717707980800000000e+10
-7.159999967657884490e+00 1.716954316800000000e+10
-7.119999967838565702e+00 1.485306163200000000e+10
-7.079999968019248691e+00 1.278654156800000000e+10
-7.039999968199931679e+00 1.114055270400000000e+10
-6.999999968380612891e+00 9.466874880000000000e+09
-6.959999968561295880e+00 6.384719872000000000e+09
-6.919999968741977980e+00 1.963741568000000000e+09
-6.879999968922660081e+00 1.789919360000000000e+08
-6.839999969103342181e+00 4.799032320000000000e+09
-6.799999969284024282e+00 1.384040140800000000e+10
-6.759999969464706382e+00 2.234249216000000000e+10
-6.719999969645389370e+00 2.804099891200000000e+10
-6.679999969826070583e+00 2.906343833600000000e+10
-6.639999970006753571e+00 2.631946444800000000e+10
-6.599999970187435672e+00 2.055846912000000000e+10
-6.559999970368116884e+00 1.557190144000000000e+10
-6.519999970548799872e+00 1.252843622400000000e+10
-6.479999970729481973e+00 9.861604352000000000e+09
-6.439999970910164961e+00 6.366628352000000000e+09
-6.399999971090846174e+00 2.940639488000000000e+09
-6.359999971271528274e+00 7.432224640000000000e+08
-6.319999971452211263e+00 4.007868000000000000e+07
-6.279999971632893363e+00 1.359704704000000000e+09
-6.239999971813575463e+00 4.568028160000000000e+09
-6.199999971994257564e+00 9.391099904000000000e+09
-6.159999972174939664e+00 1.377805107200000000e+10
-6.119999972355622653e+00 1.514103808000000000e+10
-6.079999972536303865e+00 1.421808742400000000e+10
-6.039999972716985965e+00 1.290904268800000000e+10
-5.999999972897668954e+00 1.044995379200000000e+10
-5.959999973078351054e+00 6.882773504000000000e+09
-5.919999973259033155e+00 4.920540672000000000e+09
-5.879999973439715255e+00 4.574045696000000000e+09
-5.839999973620396467e+00 4.874717696000000000e+09
-5.799999973801080344e+00 4.462506496000000000e+09
-5.759999973981761556e+00 4.011227136000000000e+09
-5.719999974162444545e+00 3.011225600000000000e+09
-5.679999974343126645e+00 2.653328128000000000e+09
-5.639999974523807857e+00 2.132711808000000000e+09
-5.599999974704491734e+00 4.568901760000000000e+08
-5.559999974885172946e+00 3.316679680000000000e+08
-5.519999975065855047e+00 1.403122080000000000e+08
-5.479999975246538035e+00 3.068076032000000000e+09
-5.439999975427219248e+00 2.145349836800000000e+10
-5.399999975607903124e+00 5.675993088000000000e+10
-5.359999975788584337e+00 7.990847897600000000e+10
-5.319999975969265549e+00 8.103155302400000000e+10
-5.279999976149949426e+00 5.899977932800000000e+10
-5.239999976330630638e+00 3.339346534400000000e+10
-5.199999976511312738e+00 1.948729344000000000e+10
-5.159999976691995727e+00 1.104301056000000000e+10
-5.119999976872676939e+00 7.546388480000000000e+09
-5.079999977053359039e+00 8.825692160000000000e+09
-5.039999977234042028e+00 1.253489356800000000e+10
-4.999999977414724128e+00 1.731032678400000000e+10
-4.959999977595407117e+00 1.808174899200000000e+10
-4.919999977776088329e+00 1.656503500800000000e+10
-4.879999977956770429e+00 1.215511244800000000e+10
-4.839999978137453418e+00 6.577207808000000000e+09
-4.799999978318134630e+00 2.621339392000000000e+09
-4.759999978498816731e+00 7.254188160000000000e+08
-4.719999978679499719e+00 6.483081600000000000e+07
-4.679999978860181820e+00 2.747817000000000000e+07
-4.639999979040864808e+00 1.937873000000000000e+07
-4.599999979221546020e+00 9.231892800000000000e+07
-4.559999979402228121e+00 4.594699200000000000e+08
-4.519999979582911109e+00 1.141751296000000000e+09
-4.479999979763593210e+00 1.231024384000000000e+09
-4.439999979944274422e+00 1.717189376000000000e+09
-4.399999980124957411e+00 6.345433088000000000e+09
-4.359999980305639511e+00 1.751923302400000000e+10
-4.319999980486322499e+00 3.305064652800000000e+10
-4.279999980667003712e+00 4.093404364800000000e+10
-4.239999980847685812e+00 3.312427212800000000e+10
-4.199999981028368801e+00 1.697817702400000000e+10
-4.159999981209050901e+00 5.498703360000000000e+09
-4.119999981389732113e+00 1.078127488000000000e+09
-4.079999981570415102e+00 2.383657728000000000e+09
-4.039999981751097202e+00 1.320056422400000000e+10
-3.999999981931778859e+00 3.282990489600000000e+10
-3.959999982112461847e+00 5.463228416000000000e+10
-3.919999982293143503e+00 6.066568396800000000e+10
-3.879999982473826936e+00 5.759729254400000000e+10
-3.839999982654508148e+00 4.602163609600000000e+10
-3.799999982835189805e+00 3.549564928000000000e+10
-3.759999983015873237e+00 2.273560166400000000e+10
-3.719999983196554894e+00 1.033622016000000000e+10
-3.679999983377236550e+00 8.120902656000000000e+09
-3.639999983557919538e+00 1.174342553600000000e+10
-3.599999983738601195e+00 1.169626726400000000e+10
-3.559999983919284627e+00 9.575980032000000000e+09
-3.519999984099966284e+00 1.051309875200000000e+10
-3.479999984280647940e+00 1.178528358400000000e+10
-3.439999984461330929e+00 1.226142617600000000e+10
-3.399999984642012585e+00 1.032692940800000000e+10
-3.359999984822694241e+00 1.150386995200000000e+10
-3.319999985003377230e+00 2.013948108800000000e+10
-3.279999985184058886e+00 3.565916979200000000e+10
-3.239999985364742319e+00 3.452252569600000000e+10
-3.199999985545423975e+00 1.285391052800000000e+10
-3.159999985726105631e+00 1.238790320000000000e+08
-3.119999985906788620e+00 1.154512076800000000e+10
-3.079999986087470276e+00 2.992517734400000000e+10
-3.039999986268151932e+00 3.584644710400000000e+10
-2.999999986448835365e+00 3.608576819200000000e+10
-2.959999986629517021e+00 4.932753817600000000e+10
-2.919999986810200010e+00 6.486545203200000000e+10
-2.879999986990881666e+00 6.574465843200000000e+10
-2.839999987171563323e+00 5.486766489600000000e+10
-2.799999987352246311e+00 4.056946688000000000e+10
-2.759999987532927967e+00 2.334170112000000000e+10
-2.719999987713609624e+00 1.056731648000000000e+10
-2.679999987894293056e+00 6.634098688000000000e+09
-2.639999988074974713e+00 4.980118528000000000e+09
-2.599999988255656369e+00 4.491320832000000000e+09
-2.559999988436339358e+00 3.709105920000000000e+09
-2.519999988617021014e+00 1.774762624000000000e+09
-2.479999988797704447e+00 1.106359168000000000e+09
-2.439999988978386103e+00 7.825771520000000000e+08
-2.399999989159067315e+00 3.328787200000000000e+09
-2.359999989339750748e+00 8.648592384000000000e+09
-2.319999989520432404e+00 1.248310681600000000e+10
-2.279999989701114060e+00 2.875127193600000000e+10
-2.239999989881797049e+00 6.385201971200000000e+10
-2.199999990062478705e+00 8.817509990400000000e+10
-2.159999990243162138e+00 8.367970713600000000e+10
-2.119999990423843794e+00 6.269028761600000000e+10
-2.079999990604525451e+00 4.620073779200000000e+10
-2.039999990785208439e+00 3.689953280000000000e+10
-1.999999990965890095e+00 2.863132672000000000e+10
-1.959999991146571752e+00 1.620684697600000000e+10
-1.919999991327254962e+00 8.782402560000000000e+09
-1.879999991507936619e+00 8.191391232000000000e+09
-1.839999991688619829e+00 8.597213184000000000e+09
-1.799999991869301486e+00 5.611098112000000000e+09
-1.759999992049983142e+00 6.431355904000000000e+09
-1.719999992230666352e+00 1.081036595200000000e+10
-1.679999992411347787e+00 1.455009587200000000e+10
-1.639999992592029443e+00 2.147180748800000000e+10
-1.599999992772712654e+00 3.059380428800000000e+10
-1.559999992953394310e+00 2.748057395200000000e+10
-1.519999993134077521e+00 1.680558694400000000e+10
-1.479999993314759177e+00 4.480723968000000000e+09
-1.439999993495440833e+00 1.861297760000000000e+08
-1.399999993676124044e+00 6.156103680000000000e+09
-1.359999993856805700e+00 1.404183756800000000e+10
-1.319999994037487356e+00 2.120348672000000000e+10
-1.279999994218170567e+00 3.155491020800000000e+10
-1.239999994398852223e+00 4.345585254400000000e+10
-1.199999994579533658e+00 4.054008627200000000e+10
-1.159999994760216868e+00 2.795660902400000000e+10
-1.119999994940898524e+00 1.873341235200000000e+10
-1.079999995121581735e+00 1.748350566400000000e+10
-1.039999995302263391e+00 1.376464793600000000e+10
-9.999999954829450477e-01 5.623571968000000000e+09
-9.599999956636282583e-01 2.045597952000000000e+09
-9.199999958443099146e-01 6.960492032000000000e+09
-8.799999960249915709e-01 3.344292044800000000e+10
-8.399999962056747815e-01 7.341037158400000000e+10
-7.999999963863563268e-01 9.127135641600000000e+10
-7.599999965670395374e-01 7.099331379200000000e+10
-7.199999967477211937e-01 3.796171571200000000e+10
-6.799999969284028500e-01 1.426721075200000000e+10
-6.399999971090860607e-01 1.455210496000000000e+09
-5.999999972897677170e-01 2.583264256000000000e+09
-5.599999974704492622e-01 3.968379136000000000e+09
-5.199999976511324729e-01 1.631344384000000000e+09
-4.799999978318141292e-01 8.161226880000000000e+08
-4.399999980124973398e-01 1.057589964800000000e+10
-3.999999981931789961e-01 2.476582297600000000e+10
-3.599999983738605969e-01 3.756163891200000000e+10
-3.199999985545438075e-01 4.283634073600000000e+10
-2.799999987352254638e-01 3.283289907200000000e+10
-2.399999989159070646e-01 1.743761203200000000e+10
-1.999999990965902752e-01 2.687262720000000000e+10
-1.599999992772719037e-01 8.247348428800000000e+10
-1.199999994579535323e-01 1.078707404800000000e+11
-7.999999963863674290e-02 8.852720844800000000e+10
-3.999999981931837145e-02 5.275178598400000000e+10
-1.577721810442023611e-15 2.572423987200000000e+10
3.999999981931678938e-02 1.467901235200000000e+10
7.999999963863516084e-02 1.384150323200000000e+10
1.199999994579519502e-01 1.485135564800000000e+10
1.599999992772703217e-01 1.184738611200000000e+10
1.999999990965886931e-01 1.473880678400000000e+10
2.399999989159054825e-01 2.049781760000000000e+10
2.799999987352238540e-01 2.230210764800000000e+10
3.199999985545406433e-01 4.066844262400000000e+10
3.599999983738590426e-01 7.636407091200000000e+10
3.999999981931773863e-01 1.069914849280000000e+11
4.399999980124941756e-01 1.099164876800000000e+11
4.799999978318125748e-01 7.541737881600000000e+10
5.199999976511309185e-01 4.135854080000000000e+10
5.599999974704477079e-01 1.904716185600000000e+10
5.999999972897660516e-01 2.257840742400000000e+10
6.399999971090828410e-01 3.347670835200000000e+10
6.799999969284012957e-01 4.071558348800000000e+10
7.199999967477196394e-01 3.568680550400000000e+10
7.599999965670364288e-01 1.934795980800000000e+10
7.999999963863547725e-01 8.508478976000000000e+09
8.399999962056731162e-01 3.506798592000000000e+09
8.799999960249899056e-01 3.672649984000000000e+09
9.199999958443083603e-01 2.474208000000000000e+09
9.599999956636251497e-01 2.464273408000000000e+09
9.999999954829434934e-01 9.413307392000000000e+09
1.039999995302261837e+00 2.278583705600000000e+10
1.079999995121578626e+00 3.663116288000000000e+10
1.119999994940896970e+00 3.742744985600000000e+10
1.159999994760215314e+00 2.854224486400000000e+10
1.199999994579532103e+00 3.364033945600000000e+10
1.239999994398850447e+00 5.678379008000000000e+10
1.279999994218169013e+00 6.806740172800000000e+10
1.319999994037487356e+00 4.665823232000000000e+10
1.359999993856802591e+00 2.631649894400000000e+10
1.399999993676120935e+00 1.626454425600000000e+10
1.439999993495439279e+00 1.418222387200000000e+10
1.479999993314757623e+00 1.187017011200000000e+10
1.519999993134075966e+00 9.965369344000000000e+09
1.559999992953391201e+00 1.453470003200000000e+10
1.599999992772709545e+00 1.747249152000000000e+10
1.639999992592027889e+00 8.590760960000000000e+09
1.679999992411346232e+00 1.128403840000000000e+09
1.719999992230664798e+00 1.078413209600000000e+10
1.759999992049983142e+00 3.214720409600000000e+10
1.799999991869298377e+00 4.085614182400000000e+10
1.839999991688616721e+00 1.592578355200000000e+10
1.879999991507935064e+00 4.511581696000000000e+09
1.919999991327253408e+00 4.506166886400000000e+10
1.959999991146571752e+00 9.797395251200000000e+10
1.999999990965886987e+00 1.156023418880000000e+11
2.039999990785205330e+00 8.642274099200000000e+10
2.079999990604523674e+00 3.940567040000000000e+10
2.119999990423842018e+00 1.382839193600000000e+10
2.159999990243160362e+00 4.858068992000000000e+09
2.199999990062475597e+00 1.905638784000000000e+09
2.239999989881793940e+00 1.738784256000000000e+09
2.279999989701112284e+00 1.116260147200000000e+10
2.319999989520430628e+00 1.464015257600000000e+10
2.359999989339748971e+00 1.267382681600000000e+10
2.399999989159067315e+00 5.501337600000000000e+09
2.439999988978382550e+00 3.418650880000000000e+09
2.479999988797700894e+00 3.446803251200000000e+10
2.519999988617019682e+00 8.414102323200000000e+10
2.559999988436338025e+00 9.296528179200000000e+10
2.599999988255656369e+00 6.388784742400000000e+10
2.639999988074971604e+00 3.542563635200000000e+10
2.679999987894289948e+00 2.260730265600000000e+10
2.719999987713608292e+00 1.588912640000000000e+10
2.759999987532926635e+00 6.772208128000000000e+09
2.799999987352244979e+00 1.265626009600000000e+10
2.839999987171563323e+00 4.079425536000000000e+10
2.879999986990878558e+00 5.103992422400000000e+10
2.919999986810196901e+00 2.662821888000000000e+10
2.959999986629515245e+00 9.822195712000000000e+09
2.999999986448833589e+00 1.689157760000000000e+09
3.039999986268151932e+00 1.055872204800000000e+10
3.079999986087467168e+00 6.194103910400000000e+10
3.119999985906785511e+00 1.175301079040000000e+11
3.159999985726103855e+00 1.104480337920000000e+11
3.199999985545422199e+00 7.600514662400000000e+10
3.239999985364740542e+00 5.059084697600000000e+10
3.279999985184055777e+00 3.221130649600000000e+10
3.319999985003374121e+00 1.504983961600000000e+10
3.359999984822692465e+00 3.363685120000000000e+09
3.399999984642010808e+00 1.779298688000000000e+09
3.439999984461329596e+00 4.192460032000000000e+09
3.479999984280647940e+00 1.580132224000000000e+09
3.519999984099963175e+00 4.321196032000000000e+09
3.559999983919281519e+00 9.022088192000000000e+09
3.599999983738599862e+00 8.759852032000000000e+09
3.639999983557918206e+00 1.555179417600000000e+10
3.679999983377236550e+00 5.261336166400000000e+10
3.719999983196551785e+00 8.875417600000000000e+10
3.759999983015870129e+00 8.232751104000000000e+10
3.799999982835188472e+00 5.815992320000000000e+10
3.839999982654506816e+00 3.730781388800000000e+10
3.879999982473825160e+00 2.382410956800000000e+10
3.919999982293143503e+00 1.124872601600000000e+10
3.959999982112458738e+00 6.713215360000000000e+08
3.999999981931777082e+00 1.092636467200000000e+10
4.039999981751095426e+00 4.743683276800000000e+10
4.079999981570414214e+00 8.757121024000000000e+10
4.119999981389732113e+00 9.914787430400000000e+10
4.159999981209047348e+00 8.447961497600000000e+10
